dt,Fs,HOP,BATCH,pend_peak,samp,inf,active,infer_ms_s,fill_ms_s,rx_ms_s,eproxy_ms_s,t_sec,fs_run,hop_run,batch_run,burst_run
0.53,64.0,384,8,1,481.2,0.0,28.6,0.0,0.0,141.853,141.853,0.08797192573547363,64,384,1,256
0.5,64.0,384,8,0,0.0,0.0,16.1,0.0,0.0,0.0,0.0,0.5941634178161621,64,384,1,256
0.5,64.0,384,8,0,0.0,0.0,16.3,0.0,0.0,0.0,0.0,1.0904126167297363,64,384,1,256
0.5,64.0,384,8,0,0.0,0.0,16.3,0.0,0.0,0.0,0.0,1.5886712074279785,64,384,1,256
0.5,64.0,384,8,0,0.0,0.0,16.3,0.0,0.0,0.0,0.0,2.0897417068481445,64,384,1,256
0.5,64.0,384,8,0,0.0,0.0,16.3,0.0,0.0,0.0,0.0,2.5928118228912354,64,384,1,256
0.5,64.0,384,8,0,0.0,0.0,16.4,0.0,0.0,0.0,0.0,3.089829683303833,64,384,1,256
0.5,64.0,384,8,0,0.0,0.0,16.3,0.0,0.0,0.0,0.0,3.5901668071746826,64,384,1,256
0.5,64.0,384,8,0,512.0,0.0,29.3,0.0,0.0,153.28,153.28,4.088133335113525,64,384,1,256
0.5,64.0,384,8,0,0.0,0.0,16.2,0.0,0.0,0.0,0.0,4.5914692878723145,64,384,1,256
0.5,64.0,384,8,0,0.0,0.0,16.3,0.0,0.0,0.0,0.0,5.091753721237183,64,384,1,256
0.5,64.0,384,8,0,0.0,0.0,16.4,0.0,0.0,0.0,0.0,5.589881181716919,64,384,1,256
0.5,64.0,384,8,0,0.0,0.0,16.3,0.0,0.0,0.0,0.0,6.087845087051392,64,384,1,256
0.5,64.0,384,8,0,0.0,0.0,16.4,0.0,0.0,0.0,0.0,6.595313549041748,64,384,1,256
0.5,64.0,384,8,0,0.0,0.0,16.3,0.0,0.0,0.0,0.0,7.0879974365234375,64,384,1,256
0.5,64.0,384,8,0,0.0,0.0,16.4,0.0,0.0,0.0,0.0,7.589223384857178,64,384,1,256
0.5,64.0,384,8,2,510.98,0.0,29.3,0.0,0.0,153.367,153.367,8.090246677398682,64,384,1,256
0.5,64.0,384,8,0,0.0,0.0,16.3,0.0,0.0,0.0,0.0,8.59112024307251,64,384,1,256
0.5,64.0,384,8,0,0.0,0.0,16.3,0.0,0.0,0.0,0.0,9.088351964950562,64,384,1,256
0.5,64.0,384,8,0,0.0,0.0,16.2,0.0,0.0,0.0,0.0,9.589606046676636,64,384,1,256
0.5,64.0,384,8,0,0.0,0.0,16.4,0.0,0.0,0.0,0.0,10.088896751403809,64,384,1,256
0.5,64.0,384,8,0,0.0,0.0,16.4,0.0,0.0,0.0,0.0,10.589433193206787,64,384,1,256
0.5,64.0,384,8,0,0.0,0.0,16.3,0.0,0.0,0.0,0.0,11.091926336288452,64,384,1,256
0.5,64.0,384,8,0,0.0,0.0,16.3,0.0,0.0,0.0,0.0,11.588082075119019,64,384,1,256
0.5,64.0,384,8,3,510.98,0.0,29.4,0.0,0.0,153.796,153.796,12.089831113815308,64,384,1,256
0.5,64.0,384,8,0,0.0,0.0,16.3,0.0,0.0,0.0,0.0,12.59465479850769,64,384,1,256
0.5,64.0,384,8,0,0.0,0.0,16.3,0.0,0.0,0.0,0.0,13.099045515060425,64,384,1,256
0.5,64.0,384,8,0,0.0,0.0,16.4,0.0,0.0,0.0,0.0,13.592900037765503,64,384,1,256
0.5,64.0,384,8,0,0.0,0.0,16.3,0.0,0.0,0.0,0.0,14.093533039093018,64,384,1,256
0.5,64.0,384,8,0,0.0,0.0,16.3,0.0,0.0,0.0,0.0,14.591314554214478,64,384,1,256
0.5,64.0,384,8,0,0.0,0.0,16.4,0.0,0.0,0.0,0.0,15.093278408050537,64,384,1,256
0.5,64.0,384,8,0,0.0,0.0,16.6,0.0,0.0,0.0,0.0,15.592352628707886,64,384,1,256
0.5,64.0,384,8,0,512.0,0.0,29.4,0.0,0.0,153.624,153.624,16.089163780212402,64,384,1,256
0.5,64.0,384,8,0,0.0,0.0,16.5,0.0,0.0,0.0,0.0,16.591009378433228,64,384,1,256
0.5,64.0,384,8,0,0.0,0.0,16.6,0.0,0.0,0.0,0.0,17.0952250957489,64,384,1,256
0.5,64.0,384,8,0,0.0,0.0,16.6,0.0,0.0,0.0,0.0,17.590832233428955,64,384,1,256
0.5,64.0,384,8,0,0.0,0.0,16.4,0.0,0.0,0.0,0.0,18.08893609046936,64,384,1,256
0.5,64.0,384,8,0,0.0,0.0,16.3,0.0,0.0,0.0,0.0,18.595553636550903,64,384,1,256
0.5,64.0,384,8,0,0.0,0.0,16.3,0.0,0.0,0.0,0.0,19.091164112091064,64,384,1,256
0.5,64.0,384,8,0,0.0,0.0,16.4,0.0,0.0,0.0,0.0,19.593696355819702,64,384,1,256
0.5,64.0,384,8,4,512.0,0.0,29.4,0.0,0.0,154.248,154.248,20.08958601951599,64,384,1,256
0.5,64.0,384,8,0,0.0,0.0,16.3,0.0,0.0,0.0,0.0,20.59085774421692,64,384,1,256
0.5,64.0,384,8,0,0.0,0.0,16.3,0.0,0.0,0.0,0.0,21.09628677368164,64,384,1,256
0.5,64.0,384,8,0,0.0,0.0,16.4,0.0,0.0,0.0,0.0,21.594671726226807,64,384,1,256
0.5,64.0,384,8,0,0.0,0.0,16.2,0.0,0.0,0.0,0.0,22.089531183242798,64,384,1,256
0.5,64.0,384,8,0,0.0,0.0,16.3,0.0,0.0,0.0,0.0,22.590553760528564,64,384,1,256
0.5,64.0,384,8,0,0.0,0.0,16.3,0.0,0.0,0.0,0.0,23.091235160827637,64,384,1,256
0.5,64.0,384,8,0,0.0,0.0,16.3,0.0,0.0,0.0,0.0,23.588637351989746,64,384,1,256
0.5,64.0,384,8,5,506.93,0.0,29.0,0.0,0.0,149.453,149.453,24.094271183013916,64,384,1,256
0.5,64.0,384,8,0,0.0,0.0,16.3,0.0,0.0,0.0,0.0,24.59980082511902,64,384,1,256
0.5,64.0,384,8,0,0.0,0.0,16.3,0.0,0.0,0.0,0.0,25.096909999847412,64,384,1,256
0.5,64.0,384,8,0,0.0,0.0,16.3,0.0,0.0,0.0,0.0,25.596853494644165,64,384,1,256
0.5,64.0,384,8,0,0.0,0.0,16.3,0.0,0.0,0.0,0.0,26.096768140792847,64,384,1,256
0.5,64.0,384,8,0,0.0,0.0,16.3,0.0,0.0,0.0,0.0,26.5945942401886,64,384,1,256
0.5,64.0,384,8,0,0.0,0.0,16.4,0.0,0.0,0.0,0.0,27.10091781616211,64,384,1,256
0.5,64.0,384,8,0,0.0,0.0,16.3,0.0,0.0,0.0,0.0,27.592623233795166,64,384,1,256
0.5,64.0,384,8,0,512.0,0.0,29.4,0.0,0.0,153.634,153.634,28.09671425819397,64,384,1,256
0.5,64.0,384,8,0,0.0,0.0,16.3,0.0,0.0,0.0,0.0,28.595765113830566,64,384,1,256
0.5,64.0,384,8,0,0.0,0.0,16.4,0.0,0.0,0.0,0.0,29.096839427947998,64,384,1,256
0.5,64.0,384,8,0,0.0,0.0,16.3,0.0,0.0,0.0,0.0,29.593188285827637,64,384,1,256
0.5,64.0,384,8,0,0.0,0.0,16.3,0.0,0.0,0.0,0.0,30.09988498687744,64,384,1,256
0.5,64.0,384,8,0,0.0,0.0,16.3,0.0,0.0,0.0,0.0,30.598325967788696,64,384,1,256
0.5,64.0,384,8,0,0.0,0.0,16.4,0.0,0.0,0.0,0.0,31.097394704818726,64,384,1,256
0.5,64.0,384,8,0,0.0,0.0,16.4,0.0,0.0,0.0,0.0,31.59932279586792,64,384,1,256
0.5,64.0,384,8,6,512.0,0.0,29.3,0.0,0.0,153.782,153.782,32.099287271499634,64,384,1,256
0.5,64.0,384,8,0,0.0,0.0,16.3,0.0,0.0,0.0,0.0,32.59489607810974,64,384,1,256
0.5,64.0,384,8,0,0.0,0.0,16.2,0.0,0.0,0.0,0.0,33.09731197357178,64,384,1,256
0.5,64.0,384,8,0,0.0,0.0,16.3,0.0,0.0,0.0,0.0,33.59464716911316,64,384,1,256
0.5,64.0,384,8,0,0.0,0.0,16.3,0.0,0.0,0.0,0.0,34.099106550216675,64,384,1,256
0.5,64.0,384,8,0,0.0,0.0,16.4,0.0,0.0,0.0,0.0,34.59528207778931,64,384,1,256
0.5,64.0,384,8,0,0.0,0.0,16.1,0.0,0.0,0.0,0.0,35.10128974914551,64,384,1,256
0.5,64.0,384,8,0,0.0,0.0,16.3,0.0,0.0,0.0,0.0,35.599040508270264,64,384,1,256
0.5,64.0,384,8,7,512.0,0.0,29.5,0.0,0.0,149.984,149.984,36.09920358657837,64,384,1,256
0.5,64.0,384,8,0,0.0,0.0,16.5,0.0,0.0,0.0,0.0,36.59613108634949,64,384,1,256
0.5,64.0,384,8,0,0.0,0.0,16.6,0.0,0.0,0.0,0.0,37.09810400009155,64,384,1,256
0.5,64.0,384,8,0,0.0,0.0,16.6,0.0,0.0,0.0,0.0,37.60006666183472,64,384,1,256
0.5,64.0,384,8,0,0.0,0.0,16.6,0.0,0.0,0.0,0.0,38.0967743396759,64,384,1,256
0.5,64.0,384,8,0,0.0,0.0,16.6,0.0,0.0,0.0,0.0,38.597965478897095,64,384,1,256
0.5,64.0,384,8,0,0.0,0.0,16.2,0.0,0.0,0.0,0.0,39.09482932090759,64,384,1,256
0.5,64.0,384,8,0,0.0,0.0,16.3,0.0,0.0,0.0,0.0,39.59388184547424,64,384,1,256
0.5,64.0,384,8,0,512.0,0.0,29.4,0.0,0.0,154.372,154.372,40.097599029541016,64,384,1,256
0.5,64.0,384,8,0,0.0,0.0,16.3,0.0,0.0,0.0,0.0,40.59425449371338,64,384,1,256
0.5,64.0,384,8,0,0.0,0.0,16.3,0.0,0.0,0.0,0.0,41.096988677978516,64,384,1,256
0.5,64.0,384,8,0,0.0,0.0,16.4,0.0,0.0,0.0,0.0,41.5967857837677,64,384,1,256
0.5,64.0,384,8,0,0.0,0.0,16.2,0.0,0.0,0.0,0.0,42.0987434387207,64,384,1,256
0.5,64.0,384,8,0,0.0,0.0,16.4,0.0,0.0,0.0,0.0,42.59856653213501,64,384,1,256
0.5,64.0,384,8,0,0.0,0.0,16.4,0.0,0.0,0.0,0.0,43.094308614730835,64,384,1,256
0.5,64.0,384,8,0,0.0,0.0,16.3,0.0,0.0,0.0,0.0,43.59845805168152,64,384,1,256
9.97,64.0,384,8,8,77.05,0.8026,96.5,945.5,0.348,969.369,1915.217,53.561556816101074,64,384,1,256
0.5,64.0,384,8,0,0.0,0.0,16.3,0.0,0.0,0.0,0.0,54.060669898986816,64,384,1,256
0.5,64.0,384,8,0,0.0,0.0,16.3,0.0,0.0,0.0,0.0,54.5626277923584,64,384,1,256
0.5,64.0,384,8,0,0.0,0.0,16.3,0.0,0.0,0.0,0.0,55.065173625946045,64,384,1,256
0.5,64.0,384,8,0,0.0,0.0,16.4,0.0,0.0,0.0,0.0,55.56477427482605,64,384,1,256
0.53,64.0,384,8,2,484.85,0.0,28.6,0.0,0.0,144.824,144.824,56.09019899368286,64,384,1,256
0.5,64.0,384,8,0,0.0,0.0,16.5,0.0,0.0,0.0,0.0,56.59487009048462,64,384,1,256
0.5,64.0,384,8,0,0.0,0.0,16.6,0.0,0.0,0.0,0.0,57.09517025947571,64,384,1,256
0.5,64.0,384,8,0,0.0,0.0,16.6,0.0,0.0,0.0,0.0,57.595205545425415,64,384,1,256
0.5,64.0,384,8,0,0.0,0.0,16.6,0.0,0.0,0.0,0.0,58.09465003013611,64,384,1,256
0.5,64.0,384,8,0,0.0,0.0,16.6,0.0,0.0,0.0,0.0,58.589298248291016,64,384,1,256
0.5,64.0,384,8,0,0.0,0.0,16.6,0.0,0.0,0.0,0.0,59.0904643535614,64,384,1,256
0.5,64.0,384,8,0,0.0,0.0,16.4,0.0,0.0,0.0,0.0,59.59396815299988,64,384,1,256
0.5,64.0,384,8,3,512.0,0.0,29.3,0.0,0.0,153.698,153.698,60.090349435806274,64,384,1,256
0.5,64.0,384,8,0,0.0,0.0,16.2,0.0,0.0,0.0,0.0,60.59062933921814,64,384,1,256
0.5,64.0,384,8,0,0.0,0.0,16.4,0.0,0.0,0.0,0.0,61.095229148864746,64,384,1,256
0.5,64.0,384,8,0,0.0,0.0,16.3,0.0,0.0,0.0,0.0,61.59491443634033,64,384,1,256
0.5,64.0,384,8,0,0.0,0.0,16.3,0.0,0.0,0.0,0.0,62.09402799606323,64,384,1,256
0.5,64.0,384,8,0,0.0,0.0,16.2,0.0,0.0,0.0,0.0,62.594731092453,64,384,1,256
0.5,64.0,384,8,0,0.0,0.0,16.3,0.0,0.0,0.0,0.0,63.0957305431366,64,384,1,256
0.5,64.0,384,8,0,0.0,0.0,16.4,0.0,0.0,0.0,0.0,63.59514546394348,64,384,1,256
0.5,64.0,384,8,0,512.0,0.0,29.3,0.0,0.0,154.302,154.302,64.0905749797821,64,384,1,256
0.5,64.0,384,8,0,0.0,0.0,16.2,0.0,0.0,0.0,0.0,64.58704781532288,64,384,1,256
0.5,64.0,384,8,0,0.0,0.0,16.3,0.0,0.0,0.0,0.0,65.09338235855103,64,384,1,256
0.5,64.0,384,8,0,0.0,0.0,16.3,0.0,0.0,0.0,0.0,65.58745169639587,64,384,1,256
0.5,64.0,384,8,0,0.0,0.0,16.3,0.0,0.0,0.0,0.0,66.09215116500854,64,384,1,256
0.5,64.0,384,8,0,0.0,0.0,16.4,0.0,0.0,0.0,0.0,66.58855319023132,64,384,1,256
0.5,64.0,384,8,0,0.0,0.0,16.4,0.0,0.0,0.0,0.0,67.09115052223206,64,384,1,256
0.5,64.0,384,8,0,0.0,0.0,16.3,0.0,0.0,0.0,0.0,67.58823251724243,64,384,1,256
0.5,64.0,384,8,4,510.98,0.0,29.3,0.0,0.0,153.481,153.481,68.09021830558777,64,384,1,256
0.5,64.0,384,8,0,0.0,0.0,16.2,0.0,0.0,0.0,0.0,68.58990573883057,64,384,1,256
0.5,64.0,384,8,0,0.0,0.0,16.4,0.0,0.0,0.0,0.0,69.09268999099731,64,384,1,256
0.5,64.0,384,8,0,0.0,0.0,16.3,0.0,0.0,0.0,0.0,69.59088802337646,64,384,1,256
0.5,64.0,384,8,0,0.0,0.0,16.3,0.0,0.0,0.0,0.0,70.08798670768738,64,384,1,256
0.5,64.0,384,8,0,0.0,0.0,16.2,0.0,0.0,0.0,0.0,70.5933849811554,64,384,1,256
0.5,64.0,384,8,0,0.0,0.0,16.3,0.0,0.0,0.0,0.0,71.08910894393921,64,384,1,256
0.5,64.0,384,8,0,0.0,0.0,16.2,0.0,0.0,0.0,0.0,71.59510040283203,64,384,1,256
0.5,64.0,384,8,5,512.0,0.0,29.3,0.0,0.0,153.296,153.296,72.09100127220154,64,384,1,256
0.5,64.0,384,8,0,0.0,0.0,16.3,0.0,0.0,0.0,0.0,72.59502792358398,64,384,1,256
0.5,64.0,384,8,0,0.0,0.0,16.3,0.0,0.0,0.0,0.0,73.0946855545044,64,384,1,256
0.5,64.0,384,8,0,0.0,0.0,16.3,0.0,0.0,0.0,0.0,73.59282350540161,64,384,1,256
0.5,64.0,384,8,0,0.0,0.0,16.3,0.0,0.0,0.0,0.0,74.0925452709198,64,384,1,256
0.5,64.0,384,8,0,0.0,0.0,16.3,0.0,0.0,0.0,0.0,74.59571719169617,64,384,1,256
0.5,64.0,384,8,0,0.0,0.0,16.3,0.0,0.0,0.0,0.0,75.08792853355408,64,384,1,256
0.5,64.0,384,8,0,0.0,0.0,16.2,0.0,0.0,0.0,0.0,75.59032082557678,64,384,1,256
0.5,64.0,384,8,0,512.0,0.0,29.3,0.0,0.0,154.142,154.142,76.08986949920654,64,384,1,256
0.5,64.0,384,8,0,0.0,0.0,16.2,0.0,0.0,0.0,0.0,76.58817934989929,64,384,1,256
0.5,64.0,384,8,0,0.0,0.0,16.3,0.0,0.0,0.0,0.0,77.0898826122284,64,384,1,256
0.5,64.0,384,8,0,0.0,0.0,16.5,0.0,0.0,0.0,0.0,77.59093594551086,64,384,1,256
0.5,64.0,384,8,0,0.0,0.0,16.6,0.0,0.0,0.0,0.0,78.08828926086426,64,384,1,256
0.5,64.0,384,8,0,0.0,0.0,16.6,0.0,0.0,0.0,0.0,78.59439277648926,64,384,1,256
0.5,64.0,384,8,0,0.0,0.0,16.6,0.0,0.0,0.0,0.0,79.09334874153137,64,384,1,256
0.5,64.0,384,8,0,0.0,0.0,16.5,0.0,0.0,0.0,0.0,79.58932375907898,64,384,1,256
0.5,64.0,384,8,6,380.0,0.0,25.8,0.0,0.0,111.144,111.144,80.1329574584961,64,384,1,256
0.5,64.0,384,8,0,132.0,0.0,19.4,0.0,0.0,36.592,36.592,80.5895688533783,64,384,1,256
0.5,64.0,384,8,0,0.0,0.0,16.3,0.0,0.0,0.0,0.0,81.0948920249939,64,384,1,256
0.5,64.0,384,8,0,0.0,0.0,16.4,0.0,0.0,0.0,0.0,81.59391570091248,64,384,1,256
0.5,64.0,384,8,0,0.0,0.0,16.3,0.0,0.0,0.0,0.0,82.09603238105774,64,384,1,256
0.5,64.0,384,8,0,0.0,0.0,16.3,0.0,0.0,0.0,0.0,82.59145665168762,64,384,1,256
0.5,64.0,384,8,0,0.0,0.0,16.3,0.0,0.0,0.0,0.0,83.09329557418823,64,384,1,256
0.5,64.0,384,8,0,0.0,0.0,16.3,0.0,0.0,0.0,0.0,83.59146881103516,64,384,1,256
0.5,64.0,384,8,7,512.0,0.0,29.3,0.0,0.0,154.1,154.1,84.08982968330383,64,384,1,256
0.5,64.0,384,8,0,0.0,0.0,16.3,0.0,0.0,0.0,0.0,84.59059000015259,64,384,1,256
0.5,64.0,384,8,0,0.0,0.0,16.3,0.0,0.0,0.0,0.0,85.09549641609192,64,384,1,256
0.5,64.0,384,8,0,0.0,0.0,16.3,0.0,0.0,0.0,0.0,85.59792995452881,64,384,1,256
0.5,64.0,384,8,0,0.0,0.0,16.3,0.0,0.0,0.0,0.0,86.09270644187927,64,384,1,256
0.5,64.0,384,8,0,0.0,0.0,16.3,0.0,0.0,0.0,0.0,86.5931978225708,64,384,1,256
0.5,64.0,384,8,0,0.0,0.0,16.4,0.0,0.0,0.0,0.0,87.0901300907135,64,384,1,256
0.5,64.0,384,8,0,0.0,0.0,16.3,0.0,0.0,0.0,0.0,87.58887434005737,64,384,1,256
0.5,64.0,384,8,0,512.0,0.0,29.4,0.0,0.0,153.498,153.498,88.09020566940308,64,384,1,256
0.5,64.0,384,8,0,0.0,0.0,16.2,0.0,0.0,0.0,0.0,88.59038758277893,64,384,1,256
0.5,64.0,384,8,0,0.0,0.0,16.3,0.0,0.0,0.0,0.0,89.09446001052856,64,384,1,256
0.5,64.0,384,8,0,0.0,0.0,16.4,0.0,0.0,0.0,0.0,89.59123110771179,64,384,1,256
0.5,64.0,384,8,0,0.0,0.0,16.3,0.0,0.0,0.0,0.0,90.09265160560608,64,384,1,256
0.5,64.0,384,8,0,0.0,0.0,16.3,0.0,0.0,0.0,0.0,90.61008954048157,64,384,1,256
0.5,64.0,384,8,0,0.0,0.0,16.2,0.0,0.0,0.0,0.0,91.09076404571533,64,384,1,256
0.5,64.0,384,8,0,0.0,0.0,16.3,0.0,0.0,0.0,0.0,91.59430503845215,64,384,1,256
9.97,64.0,384,8,8,77.01,0.8022,96.5,944.951,0.352,968.389,1913.692,101.56425356864929,64,384,1,256
0.5,64.0,384,8,0,0.0,0.0,16.2,0.0,0.0,0.0,0.0,102.06860256195068,64,384,1,256
0.5,64.0,384,8,0,0.0,0.0,16.4,0.0,0.0,0.0,0.0,102.56148219108582,64,384,1,256
0.5,64.0,384,8,0,0.0,0.0,16.2,0.0,0.0,0.0,0.0,103.06485176086426,64,384,1,256
0.5,64.0,384,8,0,0.0,0.0,16.3,0.0,0.0,0.0,0.0,103.5676441192627,64,384,1,256
0.52,64.0,384,8,2,459.92,0.0,27.9,0.0,0.0,136.176,136.176,104.08899068832397,64,384,1,256
0.5,64.0,384,8,0,30.0,0.0,16.9,0.0,0.0,5.96,5.96,104.58778023719788,64,384,1,256
0.5,64.0,384,8,0,0.0,0.0,16.3,0.0,0.0,0.0,0.0,105.08551597595215,64,384,1,256
0.5,64.0,384,8,0,0.0,0.0,16.3,0.0,0.0,0.0,0.0,105.58920526504517,64,384,1,256
0.5,64.0,384,8,0,0.0,0.0,16.3,0.0,0.0,0.0,0.0,106.08832502365112,64,384,1,256
0.5,64.0,384,8,0,0.0,0.0,16.2,0.0,0.0,0.0,0.0,106.5923707485199,64,384,1,256
0.5,64.0,384,8,0,0.0,0.0,16.3,0.0,0.0,0.0,0.0,107.08921837806702,64,384,1,256
0.5,64.0,384,8,0,0.0,0.0,16.3,0.0,0.0,0.0,0.0,107.5927426815033,64,384,1,256
0.5,64.0,384,8,3,507.94,0.0,29.2,0.0,0.0,152.633,152.633,108.08973813056946,64,384,1,256
0.5,64.0,384,8,0,0.0,0.0,16.2,0.0,0.0,0.0,0.0,108.59670853614807,64,384,1,256
0.5,64.0,384,8,0,0.0,0.0,16.3,0.0,0.0,0.0,0.0,109.09353113174438,64,384,1,256
0.5,64.0,384,8,0,0.0,0.0,16.3,0.0,0.0,0.0,0.0,109.59394192695618,64,384,1,256
0.5,64.0,384,8,0,0.0,0.0,16.3,0.0,0.0,0.0,0.0,110.09402513504028,64,384,1,256
0.5,64.0,384,8,0,0.0,0.0,16.4,0.0,0.0,0.0,0.0,110.59518837928772,64,384,1,256
0.5,64.0,384,8,0,0.0,0.0,16.3,0.0,0.0,0.0,0.0,111.09596300125122,64,384,1,256
0.5,64.0,384,8,0,0.0,0.0,16.3,0.0,0.0,0.0,0.0,111.59284043312073,64,384,1,256
0.5,64.0,384,8,0,509.96,0.0,28.9,0.0,0.0,146.361,146.361,112.09257960319519,64,384,1,256
0.5,64.0,384,8,0,0.0,0.0,16.3,0.0,0.0,0.0,0.0,112.59642052650452,64,384,1,256
0.5,64.0,384,8,0,0.0,0.0,16.2,0.0,0.0,0.0,0.0,113.09448623657227,64,384,1,256
0.5,64.0,384,8,0,0.0,0.0,16.3,0.0,0.0,0.0,0.0,113.59125351905823,64,384,1,256
0.5,64.0,384,8,0,0.0,0.0,16.3,0.0,0.0,0.0,0.0,114.09719181060791,64,384,1,256
0.5,64.0,384,8,0,0.0,0.0,16.3,0.0,0.0,0.0,0.0,114.59582614898682,64,384,1,256
0.5,64.0,384,8,0,0.0,0.0,16.3,0.0,0.0,0.0,0.0,115.09149193763733,64,384,1,256
0.5,64.0,384,8,0,0.0,0.0,16.3,0.0,0.0,0.0,0.0,115.59366464614868,64,384,1,256
0.5,64.0,384,8,4,508.95,0.0,29.3,0.0,0.0,151.229,151.229,116.09528040885925,64,384,1,256
0.5,64.0,384,8,0,0.0,0.0,16.3,0.0,0.0,0.0,0.0,116.59454011917114,64,384,1,256
0.5,64.0,384,8,0,0.0,0.0,16.3,0.0,0.0,0.0,0.0,117.09827208518982,64,384,1,256
0.5,64.0,384,8,0,0.0,0.0,16.3,0.0,0.0,0.0,0.0,117.59930324554443,64,384,1,256
0.5,64.0,384,8,0,0.0,0.0,16.3,0.0,0.0,0.0,0.0,118.09900045394897,64,384,1,256
0.5,64.0,384,8,0,0.0,0.0,16.6,0.0,0.0,0.0,0.0,118.60122513771057,64,384,1,256
0.5,64.0,384,8,0,0.0,0.0,16.5,0.0,0.0,0.0,0.0,119.0998797416687,64,384,1,256
0.5,64.0,384,8,0,0.0,0.0,16.6,0.0,0.0,0.0,0.0,119.59386706352234,64,384,1,256
0.5,64.0,384,8,5,512.0,0.0,29.5,0.0,0.0,153.558,153.558,120.09878778457642,64,384,1,256
0.5,64.0,384,8,0,0.0,0.0,16.6,0.0,0.0,0.0,0.0,120.59605741500854,64,384,1,256
0.5,64.0,384,8,0,0.0,0.0,16.6,0.0,0.0,0.0,0.0,121.09490728378296,64,384,1,256
0.5,64.0,384,8,0,0.0,0.0,16.3,0.0,0.0,0.0,0.0,121.5930540561676,64,384,1,256
0.5,64.0,384,8,0,0.0,0.0,16.3,0.0,0.0,0.0,0.0,122.09960961341858,64,384,1,256
0.5,64.0,384,8,0,0.0,0.0,16.3,0.0,0.0,0.0,0.0,122.59881401062012,64,384,1,256
0.5,64.0,384,8,0,0.0,0.0,16.4,0.0,0.0,0.0,0.0,123.09445190429688,64,384,1,256
0.5,64.0,384,8,0,0.0,0.0,16.3,0.0,0.0,0.0,0.0,123.59795260429382,64,384,1,256
0.5,64.0,384,8,0,512.0,0.0,29.4,0.0,0.0,152.854,152.854,124.10044169425964,64,384,1,256
0.5,64.0,384,8,0,0.0,0.0,16.3,0.0,0.0,0.0,0.0,124.59571623802185,64,384,1,256
0.5,64.0,384,8,0,0.0,0.0,16.3,0.0,0.0,0.0,0.0,125.0987229347229,64,384,1,256
0.5,64.0,384,8,0,0.0,0.0,16.3,0.0,0.0,0.0,0.0,125.60053157806396,64,384,1,256
0.5,64.0,384,8,0,0.0,0.0,16.3,0.0,0.0,0.0,0.0,126.10153579711914,64,384,1,256
0.5,64.0,384,8,0,0.0,0.0,16.3,0.0,0.0,0.0,0.0,126.59994149208069,64,384,1,256
0.5,64.0,384,8,0,0.0,0.0,16.4,0.0,0.0,0.0,0.0,127.09717988967896,64,384,1,256
0.5,64.0,384,8,0,0.0,0.0,16.3,0.0,0.0,0.0,0.0,127.59546566009521,64,384,1,256
0.5,64.0,384,8,6,512.0,0.0,29.3,0.0,0.0,152.93,152.93,128.09972763061523,64,384,1,256
0.5,64.0,384,8,0,0.0,0.0,16.3,0.0,0.0,0.0,0.0,128.5954041481018,64,384,1,256
0.5,64.0,384,8,0,0.0,0.0,16.3,0.0,0.0,0.0,0.0,129.09630727767944,64,384,1,256
0.5,64.0,384,8,0,0.0,0.0,16.3,0.0,0.0,0.0,0.0,129.59883046150208,64,384,1,256
0.5,64.0,384,8,0,0.0,0.0,16.2,0.0,0.0,0.0,0.0,130.09697651863098,64,384,1,256
0.5,64.0,384,8,0,0.0,0.0,16.2,0.0,0.0,0.0,0.0,130.5953140258789,64,384,1,256
0.5,64.0,384,8,0,0.0,0.0,16.3,0.0,0.0,0.0,0.0,131.1000235080719,64,384,1,256
0.5,64.0,384,8,0,0.0,0.0,16.2,0.0,0.0,0.0,0.0,131.5954716205597,64,384,1,256
0.5,64.0,384,8,7,512.0,0.0,29.2,0.0,0.0,151.368,151.368,132.0995056629181,64,384,1,256
0.5,64.0,384,8,0,0.0,0.0,16.3,0.0,0.0,0.0,0.0,132.5946979522705,64,384,1,256
0.5,64.0,384,8,0,0.0,0.0,16.3,0.0,0.0,0.0,0.0,133.09933519363403,64,384,1,256
0.5,64.0,384,8,0,0.0,0.0,16.2,0.0,0.0,0.0,0.0,133.5975742340088,64,384,1,256
0.5,64.0,384,8,0,0.0,0.0,16.1,0.0,0.0,0.0,0.0,134.0993776321411,64,384,1,256
0.5,64.0,384,8,0,0.0,0.0,16.1,0.0,0.0,0.0,0.0,134.59367895126343,64,384,1,256
0.5,64.0,384,8,0,0.0,0.0,16.2,0.0,0.0,0.0,0.0,135.09815907478333,64,384,1,256
0.5,64.0,384,8,0,0.0,0.0,16.2,0.0,0.0,0.0,0.0,135.59356117248535,64,384,1,256
0.5,64.0,384,8,0,512.0,0.0,29.3,0.0,0.0,154.324,154.324,136.09964895248413,64,384,1,256
0.5,64.0,384,8,0,0.0,0.0,16.3,0.0,0.0,0.0,0.0,136.59835195541382,64,384,1,256
0.5,64.0,384,8,0,0.0,0.0,16.3,0.0,0.0,0.0,0.0,137.09377670288086,64,384,1,256
0.5,64.0,384,8,0,0.0,0.0,16.3,0.0,0.0,0.0,0.0,137.60018968582153,64,384,1,256
0.5,64.0,384,8,0,0.0,0.0,16.2,0.0,0.0,0.0,0.0,138.0965085029602,64,384,1,256
0.5,64.0,384,8,0,0.0,0.0,16.3,0.0,0.0,0.0,0.0,138.59397792816162,64,384,1,256
0.5,64.0,384,8,0,0.0,0.0,16.5,0.0,0.0,0.0,0.0,139.09375429153442,64,384,1,256
0.5,64.0,384,8,0,0.0,0.0,16.7,0.0,0.0,0.0,0.0,139.59883499145508,64,384,1,256
9.97,64.0,384,8,8,77.01,0.8022,96.5,944.996,0.347,968.786,1914.129,149.56740403175354,64,384,1,256
0.5,64.0,384,8,0,0.0,0.0,16.2,0.0,0.0,0.0,0.0,150.07094192504883,64,384,1,256
0.5,64.0,384,8,0,0.0,0.0,16.2,0.0,0.0,0.0,0.0,150.56951570510864,64,384,1,256
0.5,64.0,384,8,0,0.0,0.0,16.3,0.0,0.0,0.0,0.0,151.06896018981934,64,384,1,256
0.5,64.0,384,8,0,0.0,0.0,16.2,0.0,0.0,0.0,0.0,151.57617926597595,64,384,1,256
0.52,64.0,384,8,2,487.62,0.0,28.6,0.0,0.0,146.722,146.722,152.09210753440857,64,384,1,256
0.5,64.0,384,8,0,0.0,0.0,16.3,0.0,0.0,0.0,0.0,152.5954246520996,64,384,1,256
0.5,64.0,384,8,0,0.0,0.0,16.3,0.0,0.0,0.0,0.0,153.0941264629364,64,384,1,256
0.5,64.0,384,8,0,0.0,0.0,16.3,0.0,0.0,0.0,0.0,153.5923216342926,64,384,1,256
0.5,64.0,384,8,0,0.0,0.0,16.3,0.0,0.0,0.0,0.0,154.0911407470703,64,384,1,256
0.5,64.0,384,8,0,0.0,0.0,16.2,0.0,0.0,0.0,0.0,154.59689497947693,64,384,1,256
0.5,64.0,384,8,0,0.0,0.0,16.4,0.0,0.0,0.0,0.0,155.09766030311584,64,384,1,256
0.5,64.0,384,8,0,0.0,0.0,16.4,0.0,0.0,0.0,0.0,155.5930471420288,64,384,1,256
0.5,64.0,384,8,3,509.96,0.0,29.4,0.0,0.0,152.155,152.155,156.09397721290588,64,384,1,256
0.5,64.0,384,8,0,0.0,0.0,16.3,0.0,0.0,0.0,0.0,156.59542059898376,64,384,1,256
0.5,64.0,384,8,0,0.0,0.0,16.3,0.0,0.0,0.0,0.0,157.099223613739,64,384,1,256
0.5,64.0,384,8,0,0.0,0.0,16.3,0.0,0.0,0.0,0.0,157.5946159362793,64,384,1,256
0.5,64.0,384,8,0,0.0,0.0,16.3,0.0,0.0,0.0,0.0,158.09789538383484,64,384,1,256
0.5,64.0,384,8,0,0.0,0.0,16.2,0.0,0.0,0.0,0.0,158.59738779067993,64,384,1,256
0.5,64.0,384,8,0,0.0,0.0,16.3,0.0,0.0,0.0,0.0,159.0932273864746,64,384,1,256
0.5,64.0,384,8,0,0.0,0.0,16.3,0.0,0.0,0.0,0.0,159.59746170043945,64,384,1,256
0.5,64.0,384,8,0,512.0,0.0,29.5,0.0,0.0,154.262,154.262,160.09276461601257,64,384,1,256
0.5,64.0,384,8,0,0.0,0.0,16.6,0.0,0.0,0.0,0.0,160.59105587005615,64,384,1,256
0.5,64.0,384,8,0,0.0,0.0,16.5,0.0,0.0,0.0,0.0,161.09720492362976,64,384,1,256
0.5,64.0,384,8,0,0.0,0.0,16.6,0.0,0.0,0.0,0.0,161.59633040428162,64,384,1,256
0.5,64.0,384,8,0,0.0,0.0,16.6,0.0,0.0,0.0,0.0,162.0967719554901,64,384,1,256
0.5,64.0,384,8,0,0.0,0.0,16.6,0.0,0.0,0.0,0.0,162.593243598938,64,384,1,256
0.5,64.0,384,8,0,0.0,0.0,16.4,0.0,0.0,0.0,0.0,163.0986738204956,64,384,1,256
0.5,64.0,384,8,0,0.0,0.0,16.3,0.0,0.0,0.0,0.0,163.59893012046814,64,384,1,256
0.5,64.0,384,8,4,512.0,0.0,29.4,0.0,0.0,153.844,153.844,164.09258794784546,64,384,1,256
0.5,64.0,384,8,0,0.0,0.0,16.3,0.0,0.0,0.0,0.0,164.59875416755676,64,384,1,256
0.5,64.0,384,8,0,0.0,0.0,16.4,0.0,0.0,0.0,0.0,165.09566164016724,64,384,1,256
0.5,64.0,384,8,0,0.0,0.0,16.3,0.0,0.0,0.0,0.0,165.59516382217407,64,384,1,256
0.5,64.0,384,8,0,0.0,0.0,16.3,0.0,0.0,0.0,0.0,166.09637880325317,64,384,1,256
0.5,64.0,384,8,0,0.0,0.0,16.4,0.0,0.0,0.0,0.0,166.59378576278687,64,384,1,256
0.5,64.0,384,8,0,0.0,0.0,16.3,0.0,0.0,0.0,0.0,167.0977795124054,64,384,1,256
0.5,64.0,384,8,0,0.0,0.0,16.3,0.0,0.0,0.0,0.0,167.5963864326477,64,384,1,256
0.5,64.0,384,8,5,512.0,0.0,29.2,0.0,0.0,152.578,152.578,168.0927586555481,64,384,1,256
0.5,64.0,384,8,0,0.0,0.0,16.3,0.0,0.0,0.0,0.0,168.59472632408142,64,384,1,256
0.5,64.0,384,8,0,0.0,0.0,16.3,0.0,0.0,0.0,0.0,169.09894371032715,64,384,1,256
0.5,64.0,384,8,0,0.0,0.0,16.3,0.0,0.0,0.0,0.0,169.59673309326172,64,384,1,256
0.5,64.0,384,8,0,0.0,0.0,16.3,0.0,0.0,0.0,0.0,170.09460067749023,64,384,1,256
0.5,64.0,384,8,0,0.0,0.0,16.2,0.0,0.0,0.0,0.0,170.59766387939453,64,384,1,256
0.5,64.0,384,8,0,0.0,0.0,16.3,0.0,0.0,0.0,0.0,171.09853148460388,64,384,1,256
0.5,64.0,384,8,0,0.0,0.0,16.2,0.0,0.0,0.0,0.0,171.59194779396057,64,384,1,256
0.5,64.0,384,8,0,512.0,0.0,29.3,0.0,0.0,153.192,153.192,172.0920855998993,64,384,1,256
0.5,64.0,384,8,0,0.0,0.0,16.2,0.0,0.0,0.0,0.0,172.5968451499939,64,384,1,256
0.5,64.0,384,8,0,0.0,0.0,16.3,0.0,0.0,0.0,0.0,173.0967755317688,64,384,1,256
0.5,64.0,384,8,0,0.0,0.0,16.4,0.0,0.0,0.0,0.0,173.59365487098694,64,384,1,256
0.5,64.0,384,8,0,0.0,0.0,16.3,0.0,0.0,0.0,0.0,174.09973645210266,64,384,1,256
0.5,64.0,384,8,0,0.0,0.0,16.4,0.0,0.0,0.0,0.0,174.59899306297302,64,384,1,256
0.5,64.0,384,8,0,0.0,0.0,16.4,0.0,0.0,0.0,0.0,175.09357285499573,64,384,1,256
0.5,64.0,384,8,0,0.0,0.0,16.4,0.0,0.0,0.0,0.0,175.59650540351868,64,384,1,256
0.5,64.0,384,8,6,512.0,0.0,29.2,0.0,0.0,153.664,153.664,176.09216499328613,64,384,1,256
0.5,64.0,384,8,0,0.0,0.0,16.3,0.0,0.0,0.0,0.0,176.5937430858612,64,384,1,256
0.5,64.0,384,8,0,0.0,0.0,16.2,0.0,0.0,0.0,0.0,177.09942388534546,64,384,1,256
0.5,64.0,384,8,0,0.0,0.0,16.3,0.0,0.0,0.0,0.0,177.59795308113098,64,384,1,256
0.5,64.0,384,8,0,0.0,0.0,16.3,0.0,0.0,0.0,0.0,178.09510922431946,64,384,1,256
0.5,64.0,384,8,0,0.0,0.0,16.3,0.0,0.0,0.0,0.0,178.5935320854187,64,384,1,256
0.5,64.0,384,8,0,0.0,0.0,16.4,0.0,0.0,0.0,0.0,179.10791563987732,64,384,1,256
0.5,64.0,384,8,0,0.0,0.0,16.3,0.0,0.0,0.0,0.0,179.59507179260254,64,384,1,256
0.5,64.0,384,8,7,512.0,0.0,29.2,0.0,0.0,153.994,153.994,180.09210515022278,64,384,1,256
0.5,64.0,384,8,0,0.0,0.0,16.5,0.0,0.0,0.0,0.0,180.59399104118347,64,384,1,256
0.5,64.0,384,8,0,0.0,0.0,16.6,0.0,0.0,0.0,0.0,181.09406185150146,64,384,1,256
0.5,64.0,384,8,0,0.0,0.0,16.5,0.0,0.0,0.0,0.0,181.59440755844116,64,384,1,256
0.5,64.0,384,8,0,0.0,0.0,16.6,0.0,0.0,0.0,0.0,182.098815202713,64,384,1,256
0.5,64.0,384,8,0,0.0,0.0,16.6,0.0,0.0,0.0,0.0,182.59872770309448,64,384,1,256
0.5,64.0,384,8,0,0.0,0.0,16.5,0.0,0.0,0.0,0.0,183.09709906578064,64,384,1,256
0.5,64.0,384,8,0,0.0,0.0,16.3,0.0,0.0,0.0,0.0,183.63636183738708,64,384,1,256
0.5,64.0,384,8,0,512.0,0.0,29.3,0.0,0.0,154.388,154.388,184.0927963256836,64,384,1,256
0.5,64.0,384,8,0,0.0,0.0,16.2,0.0,0.0,0.0,0.0,184.5980134010315,64,384,1,256
0.5,64.0,384,8,0,0.0,0.0,16.3,0.0,0.0,0.0,0.0,185.09258222579956,64,384,1,256
0.5,64.0,384,8,0,0.0,0.0,16.3,0.0,0.0,0.0,0.0,185.5984320640564,64,384,1,256
0.5,64.0,384,8,0,0.0,0.0,16.2,0.0,0.0,0.0,0.0,186.0924437046051,64,384,1,256
0.5,64.0,384,8,0,0.0,0.0,16.3,0.0,0.0,0.0,0.0,186.59488821029663,64,384,1,256
0.5,64.0,384,8,0,0.0,0.0,16.4,0.0,0.0,0.0,0.0,187.09486150741577,64,384,1,256
0.5,64.0,384,8,0,0.0,0.0,16.3,0.0,0.0,0.0,0.0,187.59598517417908,64,384,1,256
9.97,64.0,384,8,8,77.02,0.8022,96.5,945.119,0.352,968.964,1914.435,197.5654308795929,64,384,1,256
0.5,64.0,384,8,0,0.0,0.0,16.3,0.0,0.0,0.0,0.0,198.0710072517395,64,384,1,256
0.5,64.0,384,8,0,0.0,0.0,16.4,0.0,0.0,0.0,0.0,198.56968665122986,64,384,1,256
0.5,64.0,384,8,0,0.0,0.0,16.3,0.0,0.0,0.0,0.0,199.06825947761536,64,384,1,256
0.5,64.0,384,8,0,0.0,0.0,16.3,0.0,0.0,0.0,0.0,199.57680940628052,64,384,1,256
0.53,64.0,384,8,2,484.85,0.0,28.5,0.0,0.0,146.208,146.208,200.0924563407898,64,384,1,256
0.5,64.0,384,8,0,0.0,0.0,16.2,0.0,0.0,0.0,0.0,200.59502243995667,64,384,1,256
0.5,64.0,384,8,0,0.0,0.0,16.5,0.0,0.0,0.0,0.0,201.09819173812866,64,384,1,256
0.5,64.0,384,8,0,0.0,0.0,16.5,0.0,0.0,0.0,0.0,201.5954315662384,64,384,1,256
0.5,64.0,384,8,0,0.0,0.0,16.6,0.0,0.0,0.0,0.0,202.09878706932068,64,384,1,256
0.5,64.0,384,8,0,0.0,0.0,16.7,0.0,0.0,0.0,0.0,202.5934453010559,64,384,1,256
0.5,64.0,384,8,0,0.0,0.0,16.7,0.0,0.0,0.0,0.0,203.09379482269287,64,384,1,256
0.5,64.0,384,8,0,0.0,0.0,16.6,0.0,0.0,0.0,0.0,203.59686088562012,64,384,1,256
0.5,64.0,384,8,3,512.0,0.0,29.5,0.0,0.0,153.916,153.916,204.09316778182983,64,384,1,256
0.5,64.0,384,8,0,0.0,0.0,16.2,0.0,0.0,0.0,0.0,204.5957953929901,64,384,1,256
0.5,64.0,384,8,0,0.0,0.0,16.3,0.0,0.0,0.0,0.0,205.09321665763855,64,384,1,256
0.5,64.0,384,8,0,0.0,0.0,16.3,0.0,0.0,0.0,0.0,205.5926923751831,64,384,1,256
0.5,64.0,384,8,0,0.0,0.0,16.4,0.0,0.0,0.0,0.0,206.0982539653778,64,384,1,256
0.5,64.0,384,8,0,0.0,0.0,16.4,0.0,0.0,0.0,0.0,206.59362316131592,64,384,1,256
0.5,64.0,384,8,0,0.0,0.0,16.4,0.0,0.0,0.0,0.0,207.0925807952881,64,384,1,256
0.5,64.0,384,8,0,0.0,0.0,16.3,0.0,0.0,0.0,0.0,207.59598588943481,64,384,1,256
0.5,64.0,384,8,0,512.0,0.0,29.2,0.0,0.0,152.246,152.246,208.09302425384521,64,384,1,256
0.5,64.0,384,8,0,0.0,0.0,16.3,0.0,0.0,0.0,0.0,208.59770441055298,64,384,1,256
0.5,64.0,384,8,0,0.0,0.0,16.3,0.0,0.0,0.0,0.0,209.09376168251038,64,384,1,256
0.5,64.0,384,8,0,0.0,0.0,16.2,0.0,0.0,0.0,0.0,209.59567761421204,64,384,1,256
0.5,64.0,384,8,0,0.0,0.0,16.3,0.0,0.0,0.0,0.0,210.11603546142578,64,384,1,256
0.5,64.0,384,8,0,0.0,0.0,16.3,0.0,0.0,0.0,0.0,210.68312096595764,64,384,1,256
0.5,64.0,384,8,0,0.0,0.0,16.4,0.0,0.0,0.0,0.0,211.09540128707886,64,384,1,256
0.5,64.0,384,8,0,0.0,0.0,16.3,0.0,0.0,0.0,0.0,211.59298133850098,64,384,1,256
0.5,64.0,384,8,4,510.98,0.0,29.4,0.0,0.0,154.17,154.17,212.09314393997192,64,384,1,256
0.5,64.0,384,8,0,0.0,0.0,16.2,0.0,0.0,0.0,0.0,212.59748911857605,64,384,1,256
0.5,64.0,384,8,0,0.0,0.0,16.4,0.0,0.0,0.0,0.0,213.09366750717163,64,384,1,256
0.5,64.0,384,8,0,0.0,0.0,16.3,0.0,0.0,0.0,0.0,213.5946662425995,64,384,1,256
0.5,64.0,384,8,0,0.0,0.0,16.3,0.0,0.0,0.0,0.0,214.09209203720093,64,384,1,256
0.5,64.0,384,8,0,0.0,0.0,16.3,0.0,0.0,0.0,0.0,214.5950312614441,64,384,1,256
0.5,64.0,384,8,0,0.0,0.0,16.4,0.0,0.0,0.0,0.0,215.11155462265015,64,384,1,256
0.5,64.0,384,8,0,0.0,0.0,16.3,0.0,0.0,0.0,0.0,215.59866642951965,64,384,1,256
0.5,64.0,384,8,5,512.0,0.0,29.3,0.0,0.0,153.118,153.118,216.09321308135986,64,384,1,256
0.5,64.0,384,8,0,0.0,0.0,16.3,0.0,0.0,0.0,0.0,216.59684562683105,64,384,1,256
0.5,64.0,384,8,0,0.0,0.0,16.4,0.0,0.0,0.0,0.0,217.09563040733337,64,384,1,256
0.5,64.0,384,8,0,0.0,0.0,16.3,0.0,0.0,0.0,0.0,217.5991632938385,64,384,1,256
0.5,64.0,384,8,0,0.0,0.0,16.3,0.0,0.0,0.0,0.0,218.09734797477722,64,384,1,256
0.5,64.0,384,8,0,0.0,0.0,16.4,0.0,0.0,0.0,0.0,218.5946364402771,64,384,1,256
0.5,64.0,384,8,0,0.0,0.0,16.2,0.0,0.0,0.0,0.0,219.09733414649963,64,384,1,256
0.5,64.0,384,8,0,0.0,0.0,16.2,0.0,0.0,0.0,0.0,219.59328770637512,64,384,1,256
0.51,64.0,384,8,0,502.95,0.0,29.1,0.0,0.0,148.633,148.633,220.10251212120056,64,384,1,256
0.5,64.0,384,8,0,0.0,0.0,16.2,0.0,0.0,0.0,0.0,220.60279989242554,64,384,1,256
0.5,64.0,384,8,0,0.0,0.0,16.2,0.0,0.0,0.0,0.0,221.10830521583557,64,384,1,256
0.5,64.0,384,8,0,0.0,0.0,16.4,0.0,0.0,0.0,0.0,221.6098005771637,64,384,1,256
0.5,64.0,384,8,0,0.0,0.0,16.6,0.0,0.0,0.0,0.0,222.1013662815094,64,384,1,256
0.5,64.0,384,8,0,0.0,0.0,16.6,0.0,0.0,0.0,0.0,222.60038018226624,64,384,1,256
0.5,64.0,384,8,0,0.0,0.0,16.6,0.0,0.0,0.0,0.0,223.10537672042847,64,384,1,256
0.5,64.0,384,8,0,0.0,0.0,16.7,0.0,0.0,0.0,0.0,223.6037290096283,64,384,1,256
0.5,64.0,384,8,6,512.0,0.0,29.5,0.0,0.0,153.786,153.786,224.10087156295776,64,384,1,256
0.5,64.0,384,8,0,0.0,0.0,16.6,0.0,0.0,0.0,0.0,224.60603642463684,64,384,1,256
0.5,64.0,384,8,0,0.0,0.0,16.3,0.0,0.0,0.0,0.0,225.10321736335754,64,384,1,256
0.5,64.0,384,8,0,0.0,0.0,16.2,0.0,0.0,0.0,0.0,225.60824513435364,64,384,1,256
0.5,64.0,384,8,0,0.0,0.0,16.3,0.0,0.0,0.0,0.0,226.10259008407593,64,384,1,256
0.5,64.0,384,8,0,0.0,0.0,16.3,0.0,0.0,0.0,0.0,226.60049080848694,64,384,1,256
0.5,64.0,384,8,0,0.0,0.0,16.2,0.0,0.0,0.0,0.0,227.10496473312378,64,384,1,256
0.5,64.0,384,8,0,0.0,0.0,16.3,0.0,0.0,0.0,0.0,227.60242891311646,64,384,1,256
0.5,64.0,384,8,7,512.0,0.0,29.3,0.0,0.0,152.028,152.028,228.10309219360352,64,384,1,256
0.5,64.0,384,8,0,0.0,0.0,16.3,0.0,0.0,0.0,0.0,228.6040005683899,64,384,1,256
0.5,64.0,384,8,0,0.0,0.0,16.3,0.0,0.0,0.0,0.0,229.10371160507202,64,384,1,256
0.5,64.0,384,8,0,0.0,0.0,16.4,0.0,0.0,0.0,0.0,229.60332226753235,64,384,1,256
0.5,64.0,384,8,0,0.0,0.0,16.3,0.0,0.0,0.0,0.0,230.1039514541626,64,384,1,256
0.5,64.0,384,8,0,0.0,0.0,16.3,0.0,0.0,0.0,0.0,230.60642981529236,64,384,1,256
0.5,64.0,384,8,0,0.0,0.0,16.2,0.0,0.0,0.0,0.0,231.10056018829346,64,384,1,256
0.5,64.0,384,8,0,0.0,0.0,16.3,0.0,0.0,0.0,0.0,231.60492372512817,64,384,1,256
0.5,64.0,384,8,0,512.0,0.0,29.4,0.0,0.0,153.0,153.0,232.10244703292847,64,384,1,256
0.5,64.0,384,8,0,0.0,0.0,16.3,0.0,0.0,0.0,0.0,232.6089346408844,64,384,1,256
0.5,64.0,384,8,0,0.0,0.0,16.3,0.0,0.0,0.0,0.0,233.1041510105133,64,384,1,256
0.5,64.0,384,8,0,0.0,0.0,16.3,0.0,0.0,0.0,0.0,233.60675263404846,64,384,1,256
0.5,64.0,384,8,0,0.0,0.0,16.3,0.0,0.0,0.0,0.0,234.10789370536804,64,384,1,256
0.5,64.0,384,8,0,0.0,0.0,16.4,0.0,0.0,0.0,0.0,234.60572385787964,64,384,1,256
0.5,64.0,384,8,0,0.0,0.0,16.3,0.0,0.0,0.0,0.0,235.1017029285431,64,384,1,256
0.5,64.0,384,8,0,0.0,0.0,16.3,0.0,0.0,0.0,0.0,235.60356998443604,64,384,1,256
9.96,64.0,384,8,8,77.09,0.8031,96.5,945.981,0.351,969.72,1916.052,245.5645079612732,64,384,1,256
0.5,64.0,384,8,0,0.0,0.0,16.3,0.0,0.0,0.0,0.0,246.07045102119446,64,384,1,256
0.5,64.0,384,8,0,0.0,0.0,16.3,0.0,0.0,0.0,0.0,246.56851649284363,64,384,1,256
0.5,64.0,384,8,0,0.0,0.0,16.3,0.0,0.0,0.0,0.0,247.06987142562866,64,384,1,256
0.5,64.0,384,8,0,0.0,0.0,16.3,0.0,0.0,0.0,0.0,247.56836938858032,64,384,1,256
0.53,64.0,384,8,2,483.02,0.0,28.6,0.0,0.0,145.466,145.466,248.0929880142212,64,384,1,256
0.5,64.0,384,8,0,0.0,0.0,16.3,0.0,0.0,0.0,0.0,248.59880542755127,64,384,1,256
0.5,64.0,384,8,0,0.0,0.0,16.3,0.0,0.0,0.0,0.0,249.09363746643066,64,384,1,256
0.5,64.0,384,8,0,0.0,0.0,16.3,0.0,0.0,0.0,0.0,249.5981249809265,64,384,1,256
0.5,64.0,384,8,0,0.0,0.0,16.3,0.0,0.0,0.0,0.0,250.09736704826355,64,384,1,256
0.5,64.0,384,8,0,0.0,0.0,16.3,0.0,0.0,0.0,0.0,250.59235787391663,64,384,1,256
0.5,64.0,384,8,0,0.0,0.0,16.3,0.0,0.0,0.0,0.0,251.09557914733887,64,384,1,256
0.5,64.0,384,8,0,0.0,0.0,16.3,0.0,0.0,0.0,0.0,251.5941710472107,64,384,1,256
0.5,64.0,384,8,3,510.98,0.0,29.4,0.0,0.0,153.321,153.321,252.09426832199097,64,384,1,256
0.5,64.0,384,8,0,0.0,0.0,16.2,0.0,0.0,0.0,0.0,252.5995888710022,64,384,1,256
0.5,64.0,384,8,0,0.0,0.0,16.4,0.0,0.0,0.0,0.0,253.0954384803772,64,384,1,256
0.5,64.0,384,8,0,0.0,0.0,16.3,0.0,0.0,0.0,0.0,253.59288549423218,64,384,1,256
0.5,64.0,384,8,0,0.0,0.0,16.4,0.0,0.0,0.0,0.0,254.0945749282837,64,384,1,256
0.5,64.0,384,8,0,0.0,0.0,16.3,0.0,0.0,0.0,0.0,254.59358835220337,64,384,1,256
0.5,64.0,384,8,0,0.0,0.0,16.4,0.0,0.0,0.0,0.0,255.09757089614868,64,384,1,256
0.5,64.0,384,8,0,0.0,0.0,16.4,0.0,0.0,0.0,0.0,255.5980031490326,64,384,1,256
0.5,64.0,384,8,0,512.0,0.0,29.0,0.0,0.0,149.972,149.972,256.09262585639954,64,384,1,256
0.5,64.0,384,8,0,0.0,0.0,16.2,0.0,0.0,0.0,0.0,256.5990934371948,64,384,1,256
0.5,64.0,384,8,0,0.0,0.0,16.4,0.0,0.0,0.0,0.0,257.09457564353943,64,384,1,256
0.5,64.0,384,8,0,0.0,0.0,16.2,0.0,0.0,0.0,0.0,257.59716296195984,64,384,1,256
0.5,64.0,384,8,0,0.0,0.0,16.3,0.0,0.0,0.0,0.0,258.09497714042664,64,384,1,256
0.5,64.0,384,8,0,0.0,0.0,16.3,0.0,0.0,0.0,0.0,258.59299182891846,64,384,1,256
0.5,64.0,384,8,0,0.0,0.0,16.3,0.0,0.0,0.0,0.0,259.0959973335266,64,384,1,256
0.5,64.0,384,8,0,0.0,0.0,16.3,0.0,0.0,0.0,0.0,259.59529995918274,64,384,1,256
0.5,64.0,384,8,4,512.0,0.0,29.3,0.0,0.0,154.12,154.12,260.093546628952,64,384,1,256
0.5,64.0,384,8,0,0.0,0.0,16.2,0.0,0.0,0.0,0.0,260.5928645133972,64,384,1,256
0.5,64.0,384,8,0,0.0,0.0,16.2,0.0,0.0,0.0,0.0,261.0957040786743,64,384,1,256
0.5,64.0,384,8,0,0.0,0.0,16.3,0.0,0.0,0.0,0.0,261.59543633461,64,384,1,256
0.5,64.0,384,8,0,0.0,0.0,16.3,0.0,0.0,0.0,0.0,262.0971920490265,64,384,1,256
0.5,64.0,384,8,0,0.0,0.0,16.2,0.0,0.0,0.0,0.0,262.59307527542114,64,384,1,256
0.5,64.0,384,8,0,0.0,0.0,16.4,0.0,0.0,0.0,0.0,263.0945391654968,64,384,1,256
0.5,64.0,384,8,0,0.0,0.0,16.7,0.0,0.0,0.0,0.0,263.59638929367065,64,384,1,256
0.5,64.0,384,8,5,512.0,0.0,29.5,0.0,0.0,152.268,152.268,264.09620785713196,64,384,1,256
0.5,64.0,384,8,0,0.0,0.0,16.6,0.0,0.0,0.0,0.0,264.59473967552185,64,384,1,256
0.5,64.0,384,8,0,0.0,0.0,16.6,0.0,0.0,0.0,0.0,265.09592151641846,64,384,1,256
0.5,64.0,384,8,0,0.0,0.0,16.6,0.0,0.0,0.0,0.0,265.593873500824,64,384,1,256
0.5,64.0,384,8,0,0.0,0.0,16.3,0.0,0.0,0.0,0.0,266.0988006591797,64,384,1,256
0.5,64.0,384,8,0,0.0,0.0,16.3,0.0,0.0,0.0,0.0,266.59456872940063,64,384,1,256
0.5,64.0,384,8,0,0.0,0.0,16.4,0.0,0.0,0.0,0.0,267.0964834690094,64,384,1,256
0.5,64.0,384,8,0,0.0,0.0,16.3,0.0,0.0,0.0,0.0,267.59703969955444,64,384,1,256
0.5,64.0,384,8,0,512.0,0.0,29.1,0.0,0.0,150.47,150.47,268.0938537120819,64,384,1,256
0.5,64.0,384,8,0,0.0,0.0,16.2,0.0,0.0,0.0,0.0,268.59365463256836,64,384,1,256
0.5,64.0,384,8,0,0.0,0.0,16.2,0.0,0.0,0.0,0.0,269.0938141345978,64,384,1,256
0.5,64.0,384,8,0,0.0,0.0,16.3,0.0,0.0,0.0,0.0,269.5946116447449,64,384,1,256
0.5,64.0,384,8,0,0.0,0.0,16.4,0.0,0.0,0.0,0.0,270.13424468040466,64,384,1,256
0.5,64.0,384,8,0,0.0,0.0,16.3,0.0,0.0,0.0,0.0,270.60002183914185,64,384,1,256
0.5,64.0,384,8,0,0.0,0.0,16.4,0.0,0.0,0.0,0.0,271.0955355167389,64,384,1,256
0.5,64.0,384,8,0,0.0,0.0,16.3,0.0,0.0,0.0,0.0,271.5933401584625,64,384,1,256
0.5,64.0,384,8,6,509.96,0.0,29.3,0.0,0.0,153.484,153.484,272.0956115722656,64,384,1,256
0.5,64.0,384,8,0,0.0,0.0,16.3,0.0,0.0,0.0,0.0,272.59495091438293,64,384,1,256
0.5,64.0,384,8,0,0.0,0.0,16.3,0.0,0.0,0.0,0.0,273.0975110530853,64,384,1,256
0.5,64.0,384,8,0,0.0,0.0,16.4,0.0,0.0,0.0,0.0,273.59730100631714,64,384,1,256
0.5,64.0,384,8,0,0.0,0.0,16.3,0.0,0.0,0.0,0.0,274.09879446029663,64,384,1,256
0.5,64.0,384,8,0,0.0,0.0,16.4,0.0,0.0,0.0,0.0,274.5948050022125,64,384,1,256
0.5,64.0,384,8,0,0.0,0.0,16.4,0.0,0.0,0.0,0.0,275.0940251350403,64,384,1,256
0.5,64.0,384,8,0,0.0,0.0,16.2,0.0,0.0,0.0,0.0,275.59786224365234,64,384,1,256
0.5,64.0,384,8,7,512.0,0.0,29.4,0.0,0.0,153.802,153.802,276.095068693161,64,384,1,256
0.5,64.0,384,8,0,0.0,0.0,16.2,0.0,0.0,0.0,0.0,276.5975239276886,64,384,1,256
0.5,64.0,384,8,0,0.0,0.0,16.4,0.0,0.0,0.0,0.0,277.0949637889862,64,384,1,256
0.5,64.0,384,8,0,0.0,0.0,16.4,0.0,0.0,0.0,0.0,277.5963935852051,64,384,1,256
0.5,64.0,384,8,0,0.0,0.0,16.3,0.0,0.0,0.0,0.0,278.1013741493225,64,384,1,256
0.5,64.0,384,8,0,0.0,0.0,16.3,0.0,0.0,0.0,0.0,278.60040807724,64,384,1,256
0.5,64.0,384,8,0,0.0,0.0,16.4,0.0,0.0,0.0,0.0,279.0957295894623,64,384,1,256
0.5,64.0,384,8,0,0.0,0.0,16.3,0.0,0.0,0.0,0.0,279.6014733314514,64,384,1,256
0.5,64.0,384,8,0,512.0,0.0,29.3,0.0,0.0,153.878,153.878,280.0944480895996,64,384,1,256
0.5,64.0,384,8,0,0.0,0.0,16.2,0.0,0.0,0.0,0.0,280.59611916542053,64,384,1,256
0.5,64.0,384,8,0,0.0,0.0,16.3,0.0,0.0,0.0,0.0,281.0941445827484,64,384,1,256
0.5,64.0,384,8,0,0.0,0.0,16.3,0.0,0.0,0.0,0.0,281.5986177921295,64,384,1,256
0.5,64.0,384,8,0,0.0,0.0,16.3,0.0,0.0,0.0,0.0,282.1013572216034,64,384,1,256
0.5,64.0,384,8,0,0.0,0.0,16.4,0.0,0.0,0.0,0.0,282.5944426059723,64,384,1,256
0.5,64.0,384,8,0,0.0,0.0,16.2,0.0,0.0,0.0,0.0,283.0952031612396,64,384,1,256
0.5,64.0,384,8,0,0.0,0.0,16.4,0.0,0.0,0.0,0.0,283.5940968990326,64,384,1,256
9.97,64.0,384,8,8,77.02,0.8022,96.5,945.069,0.342,968.777,1914.189,293.5676019191742,64,384,1,256
0.5,64.0,384,8,0,0.0,0.0,16.2,0.0,0.0,0.0,0.0,294.06928730010986,64,384,1,256
0.5,64.0,384,8,0,0.0,0.0,16.3,0.0,0.0,0.0,0.0,294.56672644615173,64,384,1,256
0.5,64.0,384,8,0,0.0,0.0,16.2,0.0,0.0,0.0,0.0,295.073303937912,64,384,1,256
0.5,64.0,384,8,0,0.0,0.0,16.4,0.0,0.0,0.0,0.0,295.569730758667,64,384,1,256
0.53,64.0,384,8,2,483.93,0.0,28.5,0.0,0.0,145.943,145.943,296.09599113464355,64,384,1,256
0.5,64.0,384,8,0,0.0,0.0,16.2,0.0,0.0,0.0,0.0,296.59648084640503,64,384,1,256
0.5,64.0,384,8,0,0.0,0.0,16.3,0.0,0.0,0.0,0.0,297.09709906578064,64,384,1,256
0.5,64.0,384,8,0,0.0,0.0,16.3,0.0,0.0,0.0,0.0,297.5975880622864,64,384,1,256
0.5,64.0,384,8,0,0.0,0.0,16.3,0.0,0.0,0.0,0.0,298.09599709510803,64,384,1,256
0.5,64.0,384,8,0,0.0,0.0,16.2,0.0,0.0,0.0,0.0,298.59737610816956,64,384,1,256
0.5,64.0,384,8,0,0.0,0.0,16.3,0.0,0.0,0.0,0.0,299.1020727157593,64,384,1,256
0.5,64.0,384,8,0,0.0,0.0,16.3,0.0,0.0,0.0,0.0,299.5960831642151,64,384,1,256
0.5,64.0,384,8,3,512.0,0.0,29.3,0.0,0.0,153.264,153.264,300.0983464717865,64,384,1,256
0.5,64.0,384,8,0,0.0,0.0,16.3,0.0,0.0,0.0,0.0,300.6013355255127,64,384,1,256
0.5,64.0,384,8,0,0.0,0.0,16.3,0.0,0.0,0.0,0.0,301.095477104187,64,384,1,256
0.5,64.0,384,8,0,0.0,0.0,16.3,0.0,0.0,0.0,0.0,301.59607434272766,64,384,1,256
0.5,64.0,384,8,0,0.0,0.0,16.3,0.0,0.0,0.0,0.0,302.0953109264374,64,384,1,256
0.5,64.0,384,8,0,0.0,0.0,16.4,0.0,0.0,0.0,0.0,302.59836864471436,64,384,1,256
0.5,64.0,384,8,0,0.0,0.0,16.4,0.0,0.0,0.0,0.0,303.0958602428436,64,384,1,256
0.5,64.0,384,8,0,0.0,0.0,16.3,0.0,0.0,0.0,0.0,303.60111260414124,64,384,1,256
0.5,64.0,384,8,0,512.0,0.0,29.3,0.0,0.0,152.51,152.51,304.0949821472168,64,384,1,256
0.5,64.0,384,8,0,0.0,0.0,16.6,0.0,0.0,0.0,0.0,304.59420251846313,64,384,1,256
0.5,64.0,384,8,0,0.0,0.0,16.7,0.0,0.0,0.0,0.0,305.0995659828186,64,384,1,256
0.5,64.0,384,8,0,0.0,0.0,16.6,0.0,0.0,0.0,0.0,305.5982005596161,64,384,1,256
0.5,64.0,384,8,0,0.0,0.0,16.6,0.0,0.0,0.0,0.0,306.09854435920715,64,384,1,256
0.5,64.0,384,8,0,0.0,0.0,16.6,0.0,0.0,0.0,0.0,306.59741592407227,64,384,1,256
0.5,64.0,384,8,0,0.0,0.0,16.5,0.0,0.0,0.0,0.0,307.10200595855713,64,384,1,256
0.5,64.0,384,8,0,0.0,0.0,16.3,0.0,0.0,0.0,0.0,307.6015281677246,64,384,1,256
0.5,64.0,384,8,4,512.0,0.0,29.4,0.0,0.0,154.59,154.59,308.09595227241516,64,384,1,256
0.5,64.0,384,8,0,0.0,0.0,16.2,0.0,0.0,0.0,0.0,308.59419560432434,64,384,1,256
0.5,64.0,384,8,0,0.0,0.0,16.3,0.0,0.0,0.0,0.0,309.09427094459534,64,384,1,256
0.5,64.0,384,8,0,0.0,0.0,16.3,0.0,0.0,0.0,0.0,309.5977861881256,64,384,1,256
0.5,64.0,384,8,0,0.0,0.0,16.4,0.0,0.0,0.0,0.0,310.0973620414734,64,384,1,256
0.5,64.0,384,8,0,0.0,0.0,16.3,0.0,0.0,0.0,0.0,310.60036849975586,64,384,1,256
0.5,64.0,384,8,0,0.0,0.0,16.2,0.0,0.0,0.0,0.0,311.10167717933655,64,384,1,256
0.5,64.0,384,8,0,0.0,0.0,16.4,0.0,0.0,0.0,0.0,311.5945031642914,64,384,1,256
0.5,64.0,384,8,0,64.0,0.0,17.8,0.0,0.0,16.854,16.854,312.0984959602356,64,384,1,256
0.5,64.0,384,8,0,0.0,0.0,16.4,0.0,0.0,0.0,0.0,312.611225605011,64,384,1,256
0.5,64.0,384,8,0,0.0,0.0,16.3,0.0,0.0,0.0,0.0,313.1081461906433,64,384,1,256
0.5,64.0,384,8,0,0.0,0.0,16.3,0.0,0.0,0.0,0.0,313.6069583892822,64,384,1,256
