dt,Fs,HOP,BATCH,pend_peak,samp,inf,active,infer_ms_s,fill_ms_s,rx_ms_s,eproxy_ms_s,t_sec,fs_run,hop_run,batch_run,burst_run
1.0,64.0,384,8,0,256.0,0.0,20.4,0.0,0.0,57.282,57.282,0.8413166999816895,64,384,1,256
1.0,64.0,384,8,0,0.0,0.0,15.8,0.0,0.0,0.0,0.0,1.8326530456542969,64,384,1,256
1.0,64.0,384,8,0,0.0,0.0,15.9,0.0,0.0,0.0,0.0,2.8357772827148438,64,384,1,256
1.0,64.0,384,8,0,0.0,0.0,15.9,0.0,0.0,0.0,0.0,3.832371950149536,64,384,1,256
1.0,64.0,384,8,1,256.0,0.0,20.4,0.0,0.0,57.294,57.294,4.838147401809692,64,384,1,256
1.0,64.0,384,8,0,0.0,0.0,15.6,0.0,0.0,0.0,0.0,5.838074445724487,64,384,1,256
1.0,64.0,384,8,0,0.0,0.0,15.6,0.0,0.0,0.0,0.0,6.834954023361206,64,384,1,256
1.0,64.0,384,8,0,0.0,0.0,15.6,0.0,0.0,0.0,0.0,7.8403120040893555,64,384,1,256
1.0,64.0,384,8,2,256.0,0.0,20.4,0.0,0.0,57.452,57.452,8.850842714309692,64,384,1,256
1.0,64.0,384,8,0,0.0,0.0,15.6,0.0,0.0,0.0,0.0,9.839981079101562,64,384,1,256
1.0,64.0,384,8,0,0.0,0.0,15.6,0.0,0.0,0.0,0.0,10.8361234664917,64,384,1,256
1.0,64.0,384,8,0,0.0,0.0,15.6,0.0,0.0,0.0,0.0,11.83631443977356,64,384,1,256
1.0,64.0,384,8,0,256.0,0.0,20.4,0.0,0.0,55.796,55.796,12.832621574401855,64,384,1,256
1.0,64.0,384,8,0,0.0,0.0,15.6,0.0,0.0,0.0,0.0,13.836485624313354,64,384,1,256
1.0,64.0,384,8,0,0.0,0.0,15.6,0.0,0.0,0.0,0.0,14.838641881942749,64,384,1,256
1.0,64.0,384,8,0,0.0,0.0,15.6,0.0,0.0,0.0,0.0,15.832332134246826,64,384,1,256
1.0,64.0,384,8,3,256.0,0.0,20.1,0.0,0.0,52.106,52.106,16.83916401863098,64,384,1,256
1.0,64.0,384,8,0,0.0,0.0,15.6,0.0,0.0,0.0,0.0,17.838165760040283,64,384,1,256
1.0,64.0,384,8,0,0.0,0.0,15.5,0.0,0.0,0.0,0.0,18.83538317680359,64,384,1,256
1.0,64.0,384,8,0,0.0,0.0,15.6,0.0,0.0,0.0,0.0,19.838276147842407,64,384,1,256
1.0,64.0,384,8,4,256.0,0.0,20.4,0.0,0.0,57.949,57.949,20.8375506401062,64,384,1,256
1.0,64.0,384,8,0,0.0,0.0,15.7,0.0,0.0,0.0,0.0,21.83368492126465,64,384,1,256
1.0,64.0,384,8,0,0.0,0.0,15.9,0.0,0.0,0.0,0.0,22.838438510894775,64,384,1,256
1.0,64.0,384,8,0,0.0,0.0,15.9,0.0,0.0,0.0,0.0,23.839884757995605,64,384,1,256
1.0,64.0,384,8,0,256.0,0.0,20.5,0.0,0.0,56.695,56.695,24.833969354629517,64,384,1,256
1.0,64.0,384,8,0,0.0,0.0,15.6,0.0,0.0,0.0,0.0,25.832151889801025,64,384,1,256
1.0,64.0,384,8,0,0.0,0.0,15.6,0.0,0.0,0.0,0.0,26.83543610572815,64,384,1,256
1.0,64.0,384,8,0,0.0,0.0,15.6,0.0,0.0,0.0,0.0,27.839133262634277,64,384,1,256
1.0,64.0,384,8,5,256.0,0.0,20.4,0.0,0.0,56.796,56.796,28.83796739578247,64,384,1,256
1.0,64.0,384,8,0,0.0,0.0,15.6,0.0,0.0,0.0,0.0,29.832324981689453,64,384,1,256
1.0,64.0,384,8,0,0.0,0.0,15.6,0.0,0.0,0.0,0.0,30.837247133255005,64,384,1,256
1.0,64.0,384,8,0,0.0,0.0,15.6,0.0,0.0,0.0,0.0,31.83770442008972,64,384,1,256
1.0,64.0,384,8,6,256.0,0.0,20.2,0.0,0.0,54.279,54.279,32.84793829917908,64,384,1,256
1.0,64.0,384,8,0,0.0,0.0,15.6,0.0,0.0,0.0,0.0,33.83530020713806,64,384,1,256
1.0,64.0,384,8,0,0.0,0.0,15.6,0.0,0.0,0.0,0.0,34.83525514602661,64,384,1,256
1.0,64.0,384,8,0,0.0,0.0,15.6,0.0,0.0,0.0,0.0,35.835893869400024,64,384,1,256
1.0,64.0,384,8,0,256.0,0.0,20.3,0.0,0.0,55.869,55.869,36.832136154174805,64,384,1,256
1.0,64.0,384,8,0,0.0,0.0,15.6,0.0,0.0,0.0,0.0,37.833274126052856,64,384,1,256
1.0,64.0,384,8,0,0.0,0.0,15.6,0.0,0.0,0.0,0.0,38.839274883270264,64,384,1,256
1.0,64.0,384,8,0,0.0,0.0,15.6,0.0,0.0,0.0,0.0,39.83727169036865,64,384,1,256
1.0,64.0,384,8,7,256.0,0.0,20.5,0.0,0.0,57.656,57.656,40.836705923080444,64,384,1,256
1.0,64.0,384,8,0,0.0,0.0,15.6,0.0,0.0,0.0,0.0,41.83648872375488,64,384,1,256
1.0,64.0,384,8,0,0.0,0.0,15.9,0.0,0.0,0.0,0.0,42.83668851852417,64,384,1,256
1.0,64.0,384,8,0,0.0,0.0,15.9,0.0,0.0,0.0,0.0,43.83850884437561,64,384,1,256
9.57,64.0,384,8,8,31.77,0.836,98.5,985.249,0.355,992.188,1977.792,53.44128084182739,64,384,1,256
1.0,64.0,384,8,1,464.0,0.0,24.5,0.0,0.0,104.117,104.117,54.404998779296875,64,384,1,256
1.0,64.0,384,8,0,0.0,0.0,15.6,0.0,0.0,0.0,0.0,55.40774750709534,64,384,1,256
1.0,64.0,384,8,2,256.0,0.0,20.2,0.0,0.0,53.971,53.971,56.409106731414795,64,384,1,256
1.0,64.0,384,8,0,0.0,0.0,15.6,0.0,0.0,0.0,0.0,57.40277123451233,64,384,1,256
1.0,64.0,384,8,0,0.0,0.0,15.6,0.0,0.0,0.0,0.0,58.40236830711365,64,384,1,256
1.0,64.0,384,8,0,0.0,0.0,15.6,0.0,0.0,0.0,0.0,59.40829348564148,64,384,1,256
1.0,64.0,384,8,0,256.0,0.0,20.4,0.0,0.0,56.427,56.427,60.40717911720276,64,384,1,256
1.0,64.0,384,8,0,0.0,0.0,15.6,0.0,0.0,0.0,0.0,61.408034801483154,64,384,1,256
1.0,64.0,384,8,0,0.0,0.0,15.8,0.0,0.0,0.0,0.0,62.40840983390808,64,384,1,256
1.0,64.0,384,8,0,0.0,0.0,15.9,0.0,0.0,0.0,0.0,63.40152049064636,64,384,1,256
1.0,64.0,384,8,3,256.0,0.0,20.4,0.0,0.0,53.072,53.072,64.40542936325073,64,384,1,256
1.0,64.0,384,8,0,0.0,0.0,15.7,0.0,0.0,0.0,0.0,65.40765619277954,64,384,1,256
1.0,64.0,384,8,0,0.0,0.0,15.7,0.0,0.0,0.0,0.0,66.4093987941742,64,384,1,256
1.0,64.0,384,8,0,0.0,0.0,15.7,0.0,0.0,0.0,0.0,67.4073543548584,64,384,1,256
1.0,64.0,384,8,4,256.0,0.0,20.4,0.0,0.0,56.068,56.068,68.40285229682922,64,384,1,256
1.0,64.0,384,8,0,0.0,0.0,15.6,0.0,0.0,0.0,0.0,69.40753483772278,64,384,1,256
1.0,64.0,384,8,0,0.0,0.0,15.6,0.0,0.0,0.0,0.0,70.40242743492126,64,384,1,256
1.0,64.0,384,8,0,0.0,0.0,15.6,0.0,0.0,0.0,0.0,71.40216255187988,64,384,1,256
1.0,64.0,384,8,0,256.0,0.0,20.5,0.0,0.0,56.099,56.099,72.4042284488678,64,384,1,256
1.0,64.0,384,8,0,0.0,0.0,15.6,0.0,0.0,0.0,0.0,73.40492463111877,64,384,1,256
1.0,64.0,384,8,0,0.0,0.0,15.6,0.0,0.0,0.0,0.0,74.40847778320312,64,384,1,256
1.0,64.0,384,8,0,0.0,0.0,15.6,0.0,0.0,0.0,0.0,75.40539979934692,64,384,1,256
1.0,64.0,384,8,5,256.0,0.0,20.3,0.0,0.0,55.516,55.516,76.40201044082642,64,384,1,256
1.0,64.0,384,8,0,0.0,0.0,15.6,0.0,0.0,0.0,0.0,77.40590596199036,64,384,1,256
1.0,64.0,384,8,0,0.0,0.0,15.7,0.0,0.0,0.0,0.0,78.40132975578308,64,384,1,256
1.0,64.0,384,8,0,0.0,0.0,15.6,0.0,0.0,0.0,0.0,79.40479874610901,64,384,1,256
1.0,64.0,384,8,6,256.0,0.0,20.5,0.0,0.0,57.017,57.017,80.40180253982544,64,384,1,256
1.0,64.0,384,8,0,0.0,0.0,15.6,0.0,0.0,0.0,0.0,81.40507912635803,64,384,1,256
1.0,64.0,384,8,0,0.0,0.0,15.6,0.0,0.0,0.0,0.0,82.40047144889832,64,384,1,256
1.0,64.0,384,8,0,0.0,0.0,15.9,0.0,0.0,0.0,0.0,83.42454981803894,64,384,1,256
1.0,64.0,384,8,0,256.0,0.0,20.5,0.0,0.0,55.245,55.245,84.40089654922485,64,384,1,256
1.0,64.0,384,8,0,0.0,0.0,15.9,0.0,0.0,0.0,0.0,85.40488815307617,64,384,1,256
1.0,64.0,384,8,0,0.0,0.0,15.6,0.0,0.0,0.0,0.0,86.4059190750122,64,384,1,256
1.0,64.0,384,8,0,0.0,0.0,15.6,0.0,0.0,0.0,0.0,87.4017345905304,64,384,1,256
1.0,64.0,384,8,7,256.0,0.0,20.4,0.0,0.0,54.368,54.368,88.40532279014587,64,384,1,256
1.0,64.0,384,8,0,0.0,0.0,15.6,0.0,0.0,0.0,0.0,89.40637588500977,64,384,1,256
1.0,64.0,384,8,0,0.0,0.0,15.6,0.0,0.0,0.0,0.0,90.40082049369812,64,384,1,256
1.0,64.0,384,8,0,0.0,0.0,15.6,0.0,0.0,0.0,0.0,91.40162205696106,64,384,1,256
10.1,64.0,384,8,8,76.02,0.7919,94.9,933.289,0.336,950.631,1884.256,101.50408840179443,64,384,1,256
1.0,64.0,384,8,0,0.0,0.0,15.6,0.0,0.0,0.0,0.0,102.502760887146,64,384,1,256
1.0,64.0,384,8,0,0.0,0.0,15.8,0.0,0.0,0.0,0.0,103.50580334663391,64,384,1,256
1.0,64.0,384,8,2,256.0,0.0,20.7,0.0,0.0,56.096,56.096,104.50210237503052,64,384,1,256
1.0,64.0,384,8,0,0.0,0.0,15.9,0.0,0.0,0.0,0.0,105.5011522769928,64,384,1,256
1.0,64.0,384,8,0,0.0,0.0,15.6,0.0,0.0,0.0,0.0,106.50483345985413,64,384,1,256
1.0,64.0,384,8,0,0.0,0.0,15.6,0.0,0.0,0.0,0.0,107.50345492362976,64,384,1,256
1.0,64.0,384,8,0,256.0,0.0,20.5,0.0,0.0,56.886,56.886,108.50206017494202,64,384,1,256
1.0,64.0,384,8,0,0.0,0.0,15.6,0.0,0.0,0.0,0.0,109.5041298866272,64,384,1,256
1.0,64.0,384,8,0,0.0,0.0,15.6,0.0,0.0,0.0,0.0,110.50594758987427,64,384,1,256
1.0,64.0,384,8,0,0.0,0.0,15.6,0.0,0.0,0.0,0.0,111.50192379951477,64,384,1,256
1.0,64.0,384,8,3,256.0,0.0,20.5,0.0,0.0,57.438,57.438,112.50225901603699,64,384,1,256
1.0,64.0,384,8,0,0.0,0.0,15.6,0.0,0.0,0.0,0.0,113.50695896148682,64,384,1,256
1.0,64.0,384,8,0,0.0,0.0,15.6,0.0,0.0,0.0,0.0,114.50375270843506,64,384,1,256
1.0,64.0,384,8,0,0.0,0.0,15.6,0.0,0.0,0.0,0.0,115.50663590431213,64,384,1,256
1.0,64.0,384,8,4,256.0,0.0,20.5,0.0,0.0,57.897,57.897,116.5063009262085,64,384,1,256
1.0,64.0,384,8,0,0.0,0.0,15.6,0.0,0.0,0.0,0.0,117.50283026695251,64,384,1,256
1.0,64.0,384,8,0,0.0,0.0,15.6,0.0,0.0,0.0,0.0,118.5053493976593,64,384,1,256
1.0,64.0,384,8,0,0.0,0.0,15.6,0.0,0.0,0.0,0.0,119.50400996208191,64,384,1,256
1.0,64.0,384,8,0,256.0,0.0,20.5,0.0,0.0,57.514,57.514,120.50335907936096,64,384,1,256
1.0,64.0,384,8,0,0.0,0.0,15.6,0.0,0.0,0.0,0.0,121.50588369369507,64,384,1,256
1.0,64.0,384,8,0,0.0,0.0,15.6,0.0,0.0,0.0,0.0,122.50127482414246,64,384,1,256
1.0,64.0,384,8,0,0.0,0.0,15.6,0.0,0.0,0.0,0.0,123.51564168930054,64,384,1,256
1.0,64.0,384,8,5,256.0,0.0,20.7,0.0,0.0,56.742,56.742,124.50272750854492,64,384,1,256
1.0,64.0,384,8,0,0.0,0.0,15.9,0.0,0.0,0.0,0.0,125.50176119804382,64,384,1,256
1.0,64.0,384,8,0,0.0,0.0,15.8,0.0,0.0,0.0,0.0,126.5038378238678,64,384,1,256
1.0,64.0,384,8,0,0.0,0.0,15.6,0.0,0.0,0.0,0.0,127.50645399093628,64,384,1,256
1.0,64.0,384,8,6,256.0,0.0,20.5,0.0,0.0,57.129,57.129,128.50429677963257,64,384,1,256
1.0,64.0,384,8,0,0.0,0.0,15.6,0.0,0.0,0.0,0.0,129.50393652915955,64,384,1,256
1.0,64.0,384,8,0,0.0,0.0,15.6,0.0,0.0,0.0,0.0,130.5015833377838,64,384,1,256
1.0,64.0,384,8,0,0.0,0.0,15.6,0.0,0.0,0.0,0.0,131.5014660358429,64,384,1,256
1.0,64.0,384,8,0,256.0,0.0,20.4,0.0,0.0,57.167,57.167,132.5076379776001,64,384,1,256
1.0,64.0,384,8,0,0.0,0.0,15.6,0.0,0.0,0.0,0.0,133.5037875175476,64,384,1,256
1.0,64.0,384,8,0,0.0,0.0,15.6,0.0,0.0,0.0,0.0,134.5029788017273,64,384,1,256
1.0,64.0,384,8,0,0.0,0.0,15.6,0.0,0.0,0.0,0.0,135.50455832481384,64,384,1,256
1.0,64.0,384,8,7,256.0,0.0,20.5,0.0,0.0,57.409,57.409,136.50315260887146,64,384,1,256
1.0,64.0,384,8,0,0.0,0.0,15.6,0.0,0.0,0.0,0.0,137.50736474990845,64,384,1,256
1.0,64.0,384,8,0,0.0,0.0,15.6,0.0,0.0,0.0,0.0,138.5043752193451,64,384,1,256
1.0,64.0,384,8,0,0.0,0.0,15.6,0.0,0.0,0.0,0.0,139.50516414642334,64,384,1,256
10.0,64.0,384,8,8,76.77,0.7997,95.7,942.308,0.349,959.884,1902.542,149.50676441192627,64,384,1,256
1.0,64.0,384,8,0,0.0,0.0,15.6,0.0,0.0,0.0,0.0,150.50960087776184,64,384,1,256
1.0,64.0,384,8,0,0.0,0.0,15.6,0.0,0.0,0.0,0.0,151.50976967811584,64,384,1,256
1.0,64.0,384,8,2,256.0,0.0,20.4,0.0,0.0,57.231,57.231,152.52650427818298,64,384,1,256
1.0,64.0,384,8,0,0.0,0.0,15.5,0.0,0.0,0.0,0.0,153.5111424922943,64,384,1,256
1.0,64.0,384,8,0,0.0,0.0,15.6,0.0,0.0,0.0,0.0,154.50748419761658,64,384,1,256
1.0,64.0,384,8,0,0.0,0.0,15.6,0.0,0.0,0.0,0.0,155.50977039337158,64,384,1,256
1.0,64.0,384,8,0,256.0,0.0,20.4,0.0,0.0,56.595,56.595,156.50885272026062,64,384,1,256
1.0,64.0,384,8,0,0.0,0.0,15.6,0.0,0.0,0.0,0.0,157.5111846923828,64,384,1,256
1.0,64.0,384,8,0,0.0,0.0,15.6,0.0,0.0,0.0,0.0,158.50425219535828,64,384,1,256
1.0,64.0,384,8,0,0.0,0.0,15.6,0.0,0.0,0.0,0.0,159.50600695610046,64,384,1,256
1.0,64.0,384,8,3,256.0,0.0,20.4,0.0,0.0,55.532,55.532,160.5060863494873,64,384,1,256
1.0,64.0,384,8,0,0.0,0.0,15.6,0.0,0.0,0.0,0.0,161.50535488128662,64,384,1,256
1.0,64.0,384,8,0,0.0,0.0,15.6,0.0,0.0,0.0,0.0,162.50672554969788,64,384,1,256
1.0,64.0,384,8,0,0.0,0.0,15.6,0.0,0.0,0.0,0.0,163.51058626174927,64,384,1,256
1.0,64.0,384,8,4,256.0,0.0,20.5,0.0,0.0,56.396,56.396,164.511296749115,64,384,1,256
1.0,64.0,384,8,0,0.0,0.0,15.9,0.0,0.0,0.0,0.0,165.50566744804382,64,384,1,256
1.0,64.0,384,8,0,0.0,0.0,15.9,0.0,0.0,0.0,0.0,166.510098695755,64,384,1,256
1.0,64.0,384,8,0,0.0,0.0,15.8,0.0,0.0,0.0,0.0,167.5083475112915,64,384,1,256
1.0,64.0,384,8,0,256.0,0.0,20.1,0.0,0.0,51.901,51.901,168.50594234466553,64,384,1,256
1.0,64.0,384,8,0,0.0,0.0,15.6,0.0,0.0,0.0,0.0,169.5077965259552,64,384,1,256
1.0,64.0,384,8,0,0.0,0.0,15.6,0.0,0.0,0.0,0.0,170.50741004943848,64,384,1,256
1.0,64.0,384,8,0,0.0,0.0,15.6,0.0,0.0,0.0,0.0,171.5055103302002,64,384,1,256
1.0,64.0,384,8,5,256.0,0.0,20.5,0.0,0.0,55.96,55.96,172.5117907524109,64,384,1,256
1.0,64.0,384,8,0,0.0,0.0,15.6,0.0,0.0,0.0,0.0,173.50850200653076,64,384,1,256
1.0,64.0,384,8,0,0.0,0.0,15.6,0.0,0.0,0.0,0.0,174.50463962554932,64,384,1,256
1.0,64.0,384,8,0,0.0,0.0,15.6,0.0,0.0,0.0,0.0,175.51005268096924,64,384,1,256
1.0,64.0,384,8,6,256.0,0.0,20.5,0.0,0.0,56.17,56.17,176.50525760650635,64,384,1,256
1.0,64.0,384,8,0,0.0,0.0,15.6,0.0,0.0,0.0,0.0,177.51111602783203,64,384,1,256
1.0,64.0,384,8,0,0.0,0.0,15.6,0.0,0.0,0.0,0.0,178.50526118278503,64,384,1,256
1.0,64.0,384,8,0,0.0,0.0,15.6,0.0,0.0,0.0,0.0,179.5061321258545,64,384,1,256
1.0,64.0,384,8,0,256.0,0.0,20.4,0.0,0.0,55.424,55.424,180.50910472869873,64,384,1,256
1.0,64.0,384,8,0,0.0,0.0,15.6,0.0,0.0,0.0,0.0,181.50660037994385,64,384,1,256
1.0,64.0,384,8,0,0.0,0.0,15.6,0.0,0.0,0.0,0.0,182.50423383712769,64,384,1,256
1.0,64.0,384,8,0,0.0,0.0,15.6,0.0,0.0,0.0,0.0,183.50747871398926,64,384,1,256
1.0,64.0,384,8,7,256.0,0.0,20.4,0.0,0.0,56.682,56.682,184.50541710853577,64,384,1,256
1.0,64.0,384,8,0,0.0,0.0,15.9,0.0,0.0,0.0,0.0,185.5034999847412,64,384,1,256
1.0,64.0,384,8,0,0.0,0.0,15.9,0.0,0.0,0.0,0.0,186.5090034008026,64,384,1,256
1.0,64.0,384,8,0,0.0,0.0,15.9,0.0,0.0,0.0,0.0,187.51225471496582,64,384,1,256
9.95,64.0,384,8,8,51.78,0.8043,95.7,947.898,0.352,959.575,1907.824,197.499183177948,64,384,1,256
1.0,64.0,384,8,1,253.0,0.0,20.4,0.0,0.0,54.607,54.607,198.45607948303223,64,384,1,256
1.0,64.0,384,8,0,0.0,0.0,15.6,0.0,0.0,0.0,0.0,199.45039749145508,64,384,1,256
1.0,64.0,384,8,2,256.0,0.0,20.4,0.0,0.0,56.992,56.992,200.45541071891785,64,384,1,256
1.0,64.0,384,8,0,0.0,0.0,15.6,0.0,0.0,0.0,0.0,201.45261883735657,64,384,1,256
1.0,64.0,384,8,0,0.0,0.0,15.6,0.0,0.0,0.0,0.0,202.45641541481018,64,384,1,256
1.0,64.0,384,8,0,0.0,0.0,15.6,0.0,0.0,0.0,0.0,203.44892382621765,64,384,1,256
1.0,64.0,384,8,0,256.0,0.0,20.4,0.0,0.0,57.85,57.85,204.46063232421875,64,384,1,256
1.0,64.0,384,8,0,0.0,0.0,15.7,0.0,0.0,0.0,0.0,205.4566090106964,64,384,1,256
1.0,64.0,384,8,0,0.0,0.0,15.9,0.0,0.0,0.0,0.0,206.45284843444824,64,384,1,256
1.0,64.0,384,8,0,0.0,0.0,15.9,0.0,0.0,0.0,0.0,207.44878268241882,64,384,1,256
1.0,64.0,384,8,3,256.0,0.0,20.7,0.0,0.0,57.215,57.215,208.4567267894745,64,384,1,256
1.0,64.0,384,8,0,0.0,0.0,15.6,0.0,0.0,0.0,0.0,209.4515459537506,64,384,1,256
1.0,64.0,384,8,0,0.0,0.0,15.6,0.0,0.0,0.0,0.0,210.45504522323608,64,384,1,256
1.0,64.0,384,8,0,0.0,0.0,15.6,0.0,0.0,0.0,0.0,211.45311784744263,64,384,1,256
1.0,64.0,384,8,4,256.0,0.0,20.5,0.0,0.0,57.582,57.582,212.44877815246582,64,384,1,256
1.0,64.0,384,8,0,0.0,0.0,15.6,0.0,0.0,0.0,0.0,213.45088624954224,64,384,1,256
1.0,64.0,384,8,0,0.0,0.0,15.5,0.0,0.0,0.0,0.0,214.44959330558777,64,384,1,256
1.0,64.0,384,8,0,0.0,0.0,15.6,0.0,0.0,0.0,0.0,215.45380806922913,64,384,1,256
1.0,64.0,384,8,0,256.0,0.0,20.5,0.0,0.0,57.993,57.993,216.45187520980835,64,384,1,256
1.0,64.0,384,8,0,0.0,0.0,15.6,0.0,0.0,0.0,0.0,217.44914650917053,64,384,1,256
1.0,64.0,384,8,0,0.0,0.0,15.6,0.0,0.0,0.0,0.0,218.45614385604858,64,384,1,256
1.0,64.0,384,8,0,0.0,0.0,15.6,0.0,0.0,0.0,0.0,219.4499270915985,64,384,1,256
1.0,64.0,384,8,5,256.0,0.0,20.4,0.0,0.0,56.473,56.473,220.45078015327454,64,384,1,256
1.0,64.0,384,8,0,0.0,0.0,15.6,0.0,0.0,0.0,0.0,221.4584596157074,64,384,1,256
1.0,64.0,384,8,0,0.0,0.0,15.6,0.0,0.0,0.0,0.0,222.4482066631317,64,384,1,256
1.0,64.0,384,8,0,0.0,0.0,15.6,0.0,0.0,0.0,0.0,223.44854760169983,64,384,1,256
1.0,64.0,384,8,6,256.0,0.0,20.5,0.0,0.0,57.599,57.599,224.45133662223816,64,384,1,256
1.0,64.0,384,8,0,0.0,0.0,15.5,0.0,0.0,0.0,0.0,225.4508616924286,64,384,1,256
1.0,64.0,384,8,0,0.0,0.0,15.8,0.0,0.0,0.0,0.0,226.45517325401306,64,384,1,256
1.0,64.0,384,8,0,0.0,0.0,15.9,0.0,0.0,0.0,0.0,227.45620226860046,64,384,1,256
1.0,64.0,384,8,0,256.0,0.0,20.7,0.0,0.0,56.361,56.361,228.4504201412201,64,384,1,256
1.0,64.0,384,8,0,0.0,0.0,15.7,0.0,0.0,0.0,0.0,229.45499444007874,64,384,1,256
1.0,64.0,384,8,0,0.0,0.0,15.6,0.0,0.0,0.0,0.0,230.4517960548401,64,384,1,256
1.0,64.0,384,8,0,0.0,0.0,15.6,0.0,0.0,0.0,0.0,231.45440793037415,64,384,1,256
1.0,64.0,384,8,7,256.0,0.0,20.4,0.0,0.0,56.757,56.757,232.45241737365723,64,384,1,256
1.0,64.0,384,8,0,0.0,0.0,15.6,0.0,0.0,0.0,0.0,233.4487750530243,64,384,1,256
1.0,64.0,384,8,0,0.0,0.0,15.6,0.0,0.0,0.0,0.0,234.44768500328064,64,384,1,256
1.0,64.0,384,8,0,0.0,0.0,15.6,0.0,0.0,0.0,0.0,235.45614004135132,64,384,1,256
10.06,64.0,384,8,8,76.33,0.7951,95.3,937.119,0.339,954.514,1891.972,245.51121997833252,64,384,1,256
1.0,64.0,384,8,0,0.0,0.0,15.6,0.0,0.0,0.0,0.0,246.51751017570496,64,384,1,256
1.0,64.0,384,8,0,0.0,0.0,15.9,0.0,0.0,0.0,0.0,247.51203727722168,64,384,1,256
1.0,64.0,384,8,2,256.0,0.0,20.7,0.0,0.0,56.34,56.34,248.51364159584045,64,384,1,256
1.0,64.0,384,8,0,0.0,0.0,15.8,0.0,0.0,0.0,0.0,249.51393628120422,64,384,1,256
1.0,64.0,384,8,0,0.0,0.0,15.6,0.0,0.0,0.0,0.0,250.51567101478577,64,384,1,256
1.0,64.0,384,8,0,0.0,0.0,15.6,0.0,0.0,0.0,0.0,251.50965976715088,64,384,1,256
1.0,64.0,384,8,0,256.0,0.0,20.4,0.0,0.0,55.759,55.759,252.5124249458313,64,384,1,256
1.0,64.0,384,8,0,0.0,0.0,15.6,0.0,0.0,0.0,0.0,253.50963473320007,64,384,1,256
1.0,64.0,384,8,0,0.0,0.0,15.6,0.0,0.0,0.0,0.0,254.51554012298584,64,384,1,256
1.0,64.0,384,8,0,0.0,0.0,15.6,0.0,0.0,0.0,0.0,255.515278339386,64,384,1,256
1.0,64.0,384,8,3,256.0,0.0,20.5,0.0,0.0,57.49,57.49,256.5111632347107,64,384,1,256
1.0,64.0,384,8,0,0.0,0.0,15.6,0.0,0.0,0.0,0.0,257.51227259635925,64,384,1,256
1.0,64.0,384,8,0,0.0,0.0,15.6,0.0,0.0,0.0,0.0,258.5106830596924,64,384,1,256
1.0,64.0,384,8,0,0.0,0.0,15.6,0.0,0.0,0.0,0.0,259.51281452178955,64,384,1,256
1.0,64.0,384,8,4,256.0,0.0,20.5,0.0,0.0,56.985,56.985,260.5105195045471,64,384,1,256
1.0,64.0,384,8,0,0.0,0.0,15.6,0.0,0.0,0.0,0.0,261.5150234699249,64,384,1,256
1.0,64.0,384,8,0,0.0,0.0,15.6,0.0,0.0,0.0,0.0,262.51456451416016,64,384,1,256
1.0,64.0,384,8,0,0.0,0.0,15.6,0.0,0.0,0.0,0.0,263.51366448402405,64,384,1,256
1.0,64.0,384,8,0,256.0,0.0,20.5,0.0,0.0,57.696,57.696,264.50919127464294,64,384,1,256
1.0,64.0,384,8,0,0.0,0.0,15.6,0.0,0.0,0.0,0.0,265.51507544517517,64,384,1,256
1.0,64.0,384,8,0,0.0,0.0,15.6,0.0,0.0,0.0,0.0,266.5117118358612,64,384,1,256
1.0,64.0,384,8,0,0.0,0.0,15.7,0.0,0.0,0.0,0.0,267.51387095451355,64,384,1,256
1.0,64.0,384,8,5,256.0,0.0,20.7,0.0,0.0,56.856,56.856,268.5145275592804,64,384,1,256
1.0,64.0,384,8,0,0.0,0.0,15.9,0.0,0.0,0.0,0.0,269.50998163223267,64,384,1,256
1.0,64.0,384,8,0,0.0,0.0,15.7,0.0,0.0,0.0,0.0,270.5085608959198,64,384,1,256
1.0,64.0,384,8,0,0.0,0.0,15.6,0.0,0.0,0.0,0.0,271.51496958732605,64,384,1,256
1.0,64.0,384,8,6,256.0,0.0,20.5,0.0,0.0,57.503,57.503,272.52489852905273,64,384,1,256
1.0,64.0,384,8,0,0.0,0.0,15.6,0.0,0.0,0.0,0.0,273.51262283325195,64,384,1,256
1.0,64.0,384,8,0,0.0,0.0,15.6,0.0,0.0,0.0,0.0,274.5141990184784,64,384,1,256
1.0,64.0,384,8,0,0.0,0.0,15.6,0.0,0.0,0.0,0.0,275.5116903781891,64,384,1,256
1.0,64.0,384,8,0,256.0,0.0,20.5,0.0,0.0,57.813,57.813,276.5107493400574,64,384,1,256
1.0,64.0,384,8,0,0.0,0.0,15.6,0.0,0.0,0.0,0.0,277.509179353714,64,384,1,256
1.0,64.0,384,8,0,0.0,0.0,15.5,0.0,0.0,0.0,0.0,278.51153349876404,64,384,1,256
1.0,64.0,384,8,0,0.0,0.0,15.6,0.0,0.0,0.0,0.0,279.5132350921631,64,384,1,256
1.0,64.0,384,8,7,256.0,0.0,20.4,0.0,0.0,56.158,56.158,280.5097327232361,64,384,1,256
1.0,64.0,384,8,0,0.0,0.0,15.6,0.0,0.0,0.0,0.0,281.5121958255768,64,384,1,256
1.0,64.0,384,8,0,0.0,0.0,15.6,0.0,0.0,0.0,0.0,282.5126168727875,64,384,1,256
1.0,64.0,384,8,0,0.0,0.0,15.7,0.0,0.0,0.0,0.0,283.5094118118286,64,384,1,256
10.0,64.0,384,8,8,76.78,0.7998,95.7,942.425,0.349,959.31,1902.084,293.5132875442505,64,384,1,256
1.0,64.0,384,8,0,0.0,0.0,15.6,0.0,0.0,0.0,0.0,294.5144393444061,64,384,1,256
1.0,64.0,384,8,0,0.0,0.0,15.6,0.0,0.0,0.0,0.0,295.51165747642517,64,384,1,256
1.0,64.0,384,8,2,256.0,0.0,20.3,0.0,0.0,53.531,53.531,296.51333117485046,64,384,1,256
1.0,64.0,384,8,0,0.0,0.0,15.6,0.0,0.0,0.0,0.0,297.51636147499084,64,384,1,256
1.0,64.0,384,8,0,0.0,0.0,15.6,0.0,0.0,0.0,0.0,298.5171101093292,64,384,1,256
1.0,64.0,384,8,0,0.0,0.0,15.6,0.0,0.0,0.0,0.0,299.51690697669983,64,384,1,256
1.0,64.0,384,8,0,256.0,0.0,20.3,0.0,0.0,55.088,55.088,300.51307559013367,64,384,1,256
1.0,64.0,384,8,0,0.0,0.0,15.6,0.0,0.0,0.0,0.0,301.5165674686432,64,384,1,256
1.0,64.0,384,8,0,0.0,0.0,15.6,0.0,0.0,0.0,0.0,302.5156798362732,64,384,1,256
1.0,64.0,384,8,0,0.0,0.0,15.6,0.0,0.0,0.0,0.0,303.5158383846283,64,384,1,256
1.0,64.0,384,8,3,256.0,0.0,20.4,0.0,0.0,55.343,55.343,304.51580905914307,64,384,1,256
1.0,64.0,384,8,0,0.0,0.0,15.6,0.0,0.0,0.0,0.0,305.5194458961487,64,384,1,256
1.0,64.0,384,8,0,0.0,0.0,15.6,0.0,0.0,0.0,0.0,306.5172622203827,64,384,1,256
1.0,64.0,384,8,0,0.0,0.0,15.6,0.0,0.0,0.0,0.0,307.5190079212189,64,384,1,256
1.0,64.0,384,8,4,256.0,0.0,20.4,0.0,0.0,55.215,55.215,308.5186057090759,64,384,1,256
1.0,64.0,384,8,0,0.0,0.0,15.9,0.0,0.0,0.0,0.0,309.51771998405457,64,384,1,256
1.0,64.0,384,8,0,0.0,0.0,15.9,0.0,0.0,0.0,0.0,310.5181038379669,64,384,1,256
1.0,64.0,384,8,0,0.0,0.0,15.8,0.0,0.0,0.0,0.0,311.51199316978455,64,384,1,256
1.0,64.0,384,8,0,32.0,0.0,16.2,0.0,0.0,5.937,5.937,312.52898931503296,64,384,1,256
1.0,64.0,384,8,0,0.0,0.0,15.6,0.0,0.0,0.0,0.0,313.5154781341553,64,384,1,256
