dt,Fs,HOP,BATCH,pend_peak,samp,inf,active,infer_ms_s,fill_ms_s,rx_ms_s,eproxy_ms_s,t_sec,fs_run,hop_run,batch_run,burst_run
0.5,64.0,384,8,0,128.0,0.0,19.3,0.0,0.0,32.864,32.864,0.3563065528869629,64,384,1,64
0.5,64.0,384,8,0,0.0,0.0,16.2,0.0,0.0,0.0,0.0,0.8552067279815674,64,384,1,64
0.5,64.0,384,8,0,128.0,0.0,19.3,0.0,0.0,36.394,36.394,1.3547329902648926,64,384,1,64
0.5,64.0,384,8,0,0.0,0.0,16.2,0.0,0.0,0.0,0.0,1.8596031665802002,64,384,1,64
0.5,64.0,384,8,0,128.0,0.0,19.5,0.0,0.0,33.908,33.908,2.357532501220703,64,384,1,64
0.5,64.0,384,8,0,0.0,0.0,16.4,0.0,0.0,0.0,0.0,2.862499952316284,64,384,1,64
0.5,64.0,384,8,0,128.0,0.0,19.5,0.0,0.0,36.662,36.662,3.3554155826568604,64,384,1,64
0.5,64.0,384,8,0,0.0,0.0,16.3,0.0,0.0,0.0,0.0,3.857440948486328,64,384,1,64
0.5,64.0,384,8,5,128.0,0.0,19.4,0.0,0.0,35.622,35.622,4.360524415969849,64,384,1,64
0.5,64.0,384,8,0,0.0,0.0,16.2,0.0,0.0,0.0,0.0,4.859368801116943,64,384,1,64
0.5,64.0,384,8,0,128.0,0.0,19.4,0.0,0.0,32.842,32.842,5.360151052474976,64,384,1,64
0.5,64.0,384,8,0,0.0,0.0,16.2,0.0,0.0,0.0,0.0,5.860074996948242,64,384,1,64
0.5,64.0,384,8,0,128.0,0.0,19.4,0.0,0.0,32.844,32.844,6.3589489459991455,64,384,1,64
0.5,64.0,384,8,0,0.0,0.0,16.3,0.0,0.0,0.0,0.0,6.861213445663452,64,384,1,64
0.5,64.0,384,8,0,128.0,0.0,19.3,0.0,0.0,36.444,36.444,7.362063646316528,64,384,1,64
0.5,64.0,384,8,0,0.0,0.0,16.3,0.0,0.0,0.0,0.0,7.856680393218994,64,384,1,64
0.5,64.0,384,8,0,128.0,0.0,19.5,0.0,0.0,36.742,36.742,8.355316877365112,64,384,1,64
0.5,64.0,384,8,0,0.0,0.0,16.6,0.0,0.0,0.0,0.0,8.861676692962646,64,384,1,64
0.5,64.0,384,8,0,128.0,0.0,19.7,0.0,0.0,32.846,32.846,9.35519528388977,64,384,1,64
0.5,64.0,384,8,0,0.0,0.0,16.7,0.0,0.0,0.0,0.0,9.855480670928955,64,384,1,64
0.5,64.0,384,8,6,128.0,0.0,19.7,0.0,0.0,32.866,32.866,10.357625961303711,64,384,1,64
0.5,64.0,384,8,0,0.0,0.0,16.6,0.0,0.0,0.0,0.0,10.861642837524414,64,384,1,64
0.5,64.0,384,8,0,128.0,0.0,19.6,0.0,0.0,36.808,36.808,11.365627765655518,64,384,1,64
0.5,64.0,384,8,0,0.0,0.0,16.2,0.0,0.0,0.0,0.0,11.855905771255493,64,384,1,64
0.5,64.0,384,8,0,128.0,0.0,19.4,0.0,0.0,36.468,36.468,12.36359977722168,64,384,1,64
0.5,64.0,384,8,0,0.0,0.0,16.4,0.0,0.0,0.0,0.0,12.857232332229614,64,384,1,64
0.5,64.0,384,8,0,128.0,0.0,19.5,0.0,0.0,35.622,35.622,13.358198165893555,64,384,1,64
0.5,64.0,384,8,0,0.0,0.0,16.4,0.0,0.0,0.0,0.0,13.86109972000122,64,384,1,64
0.5,64.0,384,8,0,128.0,0.0,19.5,0.0,0.0,36.398,36.398,14.35965347290039,64,384,1,64
0.5,64.0,384,8,0,0.0,0.0,16.3,0.0,0.0,0.0,0.0,14.861084938049316,64,384,1,64
0.5,64.0,384,8,0,128.0,0.0,19.4,0.0,0.0,34.748,34.748,15.353265285491943,64,384,1,64
0.5,64.0,384,8,0,0.0,0.0,16.2,0.0,0.0,0.0,0.0,15.85548186302185,64,384,1,64
0.5,64.0,384,8,7,128.0,0.0,19.5,0.0,0.0,32.884,32.884,16.358540534973145,64,384,1,64
0.5,64.0,384,8,0,0.0,0.0,16.3,0.0,0.0,0.0,0.0,16.860438346862793,64,384,1,64
0.5,64.0,384,8,0,128.0,0.0,19.5,0.0,0.0,32.852,32.852,17.359453201293945,64,384,1,64
0.5,64.0,384,8,0,0.0,0.0,16.4,0.0,0.0,0.0,0.0,17.85980534553528,64,384,1,64
0.5,64.0,384,8,0,128.0,0.0,19.5,0.0,0.0,34.558,34.558,18.356266975402832,64,384,1,64
0.5,64.0,384,8,0,0.0,0.0,16.3,0.0,0.0,0.0,0.0,18.85497808456421,64,384,1,64
0.5,64.0,384,8,0,128.0,0.0,19.5,0.0,0.0,32.81,32.81,19.360666513442993,64,384,1,64
0.5,64.0,384,8,0,0.0,0.0,16.3,0.0,0.0,0.0,0.0,19.854912519454956,64,384,1,64
0.5,64.0,384,8,0,128.0,0.0,19.4,0.0,0.0,36.236,36.236,20.359456539154053,64,384,1,64
0.5,64.0,384,8,0,0.0,0.0,16.3,0.0,0.0,0.0,0.0,20.856424808502197,64,384,1,64
0.5,64.0,384,8,0,128.0,0.0,19.4,0.0,0.0,35.89,35.89,21.36046051979065,64,384,1,64
0.5,64.0,384,8,0,0.0,0.0,16.3,0.0,0.0,0.0,0.0,21.856885194778442,64,384,1,64
9.67,64.0,384,8,8,66.21,0.8276,98.7,974.967,0.362,995.486,1970.815,31.521474838256836,64,384,1,64
0.51,64.0,384,8,0,125.74,0.0,19.5,0.0,0.0,32.261,32.261,32.03102707862854,64,384,1,64
0.5,64.0,384,8,0,0.0,0.0,16.3,0.0,0.0,0.0,0.0,32.53216886520386,64,384,1,64
0.5,64.0,384,8,0,128.0,0.0,19.4,0.0,0.0,36.036,36.036,33.030763387680054,64,384,1,64
0.5,64.0,384,8,0,0.0,0.0,16.2,0.0,0.0,0.0,0.0,33.535255432128906,64,384,1,64
0.5,64.0,384,8,2,128.0,0.0,19.4,0.0,0.0,36.284,36.284,34.03116512298584,64,384,1,64
0.5,64.0,384,8,0,0.0,0.0,16.3,0.0,0.0,0.0,0.0,34.52859377861023,64,384,1,64
0.5,64.0,384,8,0,128.0,0.0,19.3,0.0,0.0,35.998,35.998,35.03066110610962,64,384,1,64
0.5,64.0,384,8,0,0.0,0.0,16.3,0.0,0.0,0.0,0.0,35.531073570251465,64,384,1,64
0.5,64.0,384,8,0,112.0,0.0,19.0,0.0,0.0,29.964,29.964,36.02947759628296,64,384,1,64
0.5,64.0,384,8,0,16.0,0.0,16.5,0.0,0.0,3.248,3.248,36.53304409980774,64,384,1,64
0.5,64.0,384,8,0,127.74,0.0,19.4,0.0,0.0,36.371,36.371,37.03077054023743,64,384,1,64
0.5,64.0,384,8,0,0.0,0.0,16.3,0.0,0.0,0.0,0.0,37.53027272224426,64,384,1,64
0.5,64.0,384,8,0,128.0,0.0,19.4,0.0,0.0,35.85,35.85,38.03168296813965,64,384,1,64
0.5,64.0,384,8,0,0.0,0.0,16.2,0.0,0.0,0.0,0.0,38.53020167350769,64,384,1,64
0.5,64.0,384,8,0,128.0,0.0,19.4,0.0,0.0,36.01,36.01,39.031940937042236,64,384,1,64
0.5,64.0,384,8,0,0.0,0.0,16.1,0.0,0.0,0.0,0.0,39.53680872917175,64,384,1,64
0.5,64.0,384,8,3,128.0,0.0,19.4,0.0,0.0,36.828,36.828,40.03148674964905,64,384,1,64
0.5,64.0,384,8,0,0.0,0.0,16.3,0.0,0.0,0.0,0.0,40.529860973358154,64,384,1,64
0.5,64.0,384,8,0,128.0,0.0,19.4,0.0,0.0,36.552,36.552,41.03128933906555,64,384,1,64
0.5,64.0,384,8,0,0.0,0.0,16.2,0.0,0.0,0.0,0.0,41.53366279602051,64,384,1,64
0.5,64.0,384,8,0,128.0,0.0,19.4,0.0,0.0,36.252,36.252,42.031583070755005,64,384,1,64
0.5,64.0,384,8,0,0.0,0.0,16.3,0.0,0.0,0.0,0.0,42.5354118347168,64,384,1,64
0.5,64.0,384,8,0,127.74,0.0,19.4,0.0,0.0,36.287,36.287,43.03223943710327,64,384,1,64
0.5,64.0,384,8,0,0.0,0.0,16.3,0.0,0.0,0.0,0.0,43.53759574890137,64,384,1,64
0.5,64.0,384,8,0,127.74,0.0,19.4,0.0,0.0,36.455,36.455,44.03306746482849,64,384,1,64
0.5,64.0,384,8,0,0.0,0.0,16.3,0.0,0.0,0.0,0.0,44.533992528915405,64,384,1,64
0.5,64.0,384,8,0,128.0,0.0,19.5,0.0,0.0,36.06,36.06,45.03307843208313,64,384,1,64
0.5,64.0,384,8,0,0.0,0.0,16.3,0.0,0.0,0.0,0.0,45.53349161148071,64,384,1,64
0.5,64.0,384,8,4,128.0,0.0,19.5,0.0,0.0,36.426,36.426,46.03153085708618,64,384,1,64
0.5,64.0,384,8,0,0.0,0.0,16.3,0.0,0.0,0.0,0.0,46.53443121910095,64,384,1,64
0.5,64.0,384,8,0,128.0,0.0,19.5,0.0,0.0,35.928,35.928,47.031370878219604,64,384,1,64
0.5,64.0,384,8,0,0.0,0.0,16.2,0.0,0.0,0.0,0.0,47.53499937057495,64,384,1,64
0.5,64.0,384,8,0,128.0,0.0,19.6,0.0,0.0,36.658,36.658,48.03085947036743,64,384,1,64
0.5,64.0,384,8,0,0.0,0.0,16.3,0.0,0.0,0.0,0.0,48.5357723236084,64,384,1,64
0.5,64.0,384,8,0,128.0,0.0,19.4,0.0,0.0,36.876,36.876,49.031001806259155,64,384,1,64
0.5,64.0,384,8,0,0.0,0.0,16.2,0.0,0.0,0.0,0.0,49.53869080543518,64,384,1,64
0.5,64.0,384,8,0,128.0,0.0,19.7,0.0,0.0,36.85,36.85,50.030824184417725,64,384,1,64
0.5,64.0,384,8,0,0.0,0.0,16.5,0.0,0.0,0.0,0.0,50.53867316246033,64,384,1,64
0.5,64.0,384,8,0,128.0,0.0,19.7,0.0,0.0,35.998,35.998,51.03128528594971,64,384,1,64
0.5,64.0,384,8,0,0.0,0.0,16.5,0.0,0.0,0.0,0.0,51.53278160095215,64,384,1,64
0.5,64.0,384,8,5,128.0,0.0,19.8,0.0,0.0,32.842,32.842,52.03122878074646,64,384,1,64
0.5,64.0,384,8,0,0.0,0.0,16.5,0.0,0.0,0.0,0.0,52.53455209732056,64,384,1,64
0.5,64.0,384,8,0,128.0,0.0,19.5,0.0,0.0,32.848,32.848,53.031349182128906,64,384,1,64
0.5,64.0,384,8,0,0.0,0.0,16.2,0.0,0.0,0.0,0.0,53.5321843624115,64,384,1,64
0.5,64.0,384,8,0,0.0,0.0,16.2,0.0,0.0,0.0,0.0,54.05958914756775,64,384,1,64
0.5,64.0,384,8,0,128.0,0.0,19.5,0.0,0.0,35.286,35.286,54.53772854804993,64,384,1,64
0.5,64.0,384,8,0,128.0,0.0,19.5,0.0,0.0,36.692,36.692,55.03181457519531,64,384,1,64
0.5,64.0,384,8,0,0.0,0.0,16.3,0.0,0.0,0.0,0.0,55.53994560241699,64,384,1,64
0.5,64.0,384,8,0,127.49,0.0,19.4,0.0,0.0,35.195,35.195,56.035292863845825,64,384,1,64
0.5,64.0,384,8,0,0.0,0.0,16.3,0.0,0.0,0.0,0.0,56.541560649871826,64,384,1,64
0.5,64.0,384,8,0,128.0,0.0,19.5,0.0,0.0,36.78,36.78,57.04019331932068,64,384,1,64
0.5,64.0,384,8,0,0.0,0.0,16.2,0.0,0.0,0.0,0.0,57.53800821304321,64,384,1,64
0.5,64.0,384,8,6,128.0,0.0,19.5,0.0,0.0,35.556,35.556,58.03950262069702,64,384,1,64
0.5,64.0,384,8,0,0.0,0.0,16.3,0.0,0.0,0.0,0.0,58.535903453826904,64,384,1,64
0.5,64.0,384,8,0,128.0,0.0,19.4,0.0,0.0,36.312,36.312,59.03285360336304,64,384,1,64
0.5,64.0,384,8,0,0.0,0.0,16.2,0.0,0.0,0.0,0.0,59.53728890419006,64,384,1,64
0.5,64.0,384,8,0,128.0,0.0,19.4,0.0,0.0,36.546,36.546,60.0396032333374,64,384,1,64
0.5,64.0,384,8,0,0.0,0.0,16.3,0.0,0.0,0.0,0.0,60.54035472869873,64,384,1,64
0.5,64.0,384,8,0,128.0,0.0,19.5,0.0,0.0,36.24,36.24,61.04042983055115,64,384,1,64
0.5,64.0,384,8,0,0.0,0.0,16.3,0.0,0.0,0.0,0.0,61.54145050048828,64,384,1,64
0.5,64.0,384,8,0,128.0,0.0,19.5,0.0,0.0,35.878,35.878,62.04059672355652,64,384,1,64
0.5,64.0,384,8,0,0.0,0.0,16.3,0.0,0.0,0.0,0.0,62.53837299346924,64,384,1,64
0.5,64.0,384,8,0,128.0,0.0,19.3,0.0,0.0,36.036,36.036,63.04027223587036,64,384,1,64
0.5,64.0,384,8,0,0.0,0.0,16.2,0.0,0.0,0.0,0.0,63.53417229652405,64,384,1,64
0.5,64.0,384,8,7,128.0,0.0,19.4,0.0,0.0,35.368,35.368,64.0406346321106,64,384,1,64
0.5,64.0,384,8,0,0.0,0.0,16.3,0.0,0.0,0.0,0.0,64.53325939178467,64,384,1,64
0.5,64.0,384,8,0,127.49,0.0,19.4,0.0,0.0,33.341,33.341,65.03735733032227,64,384,1,64
0.5,64.0,384,8,0,0.0,0.0,16.3,0.0,0.0,0.0,0.0,65.53960490226746,64,384,1,64
0.5,64.0,384,8,0,128.0,0.0,19.5,0.0,0.0,35.464,35.464,66.04009199142456,64,384,1,64
0.5,64.0,384,8,0,0.0,0.0,16.3,0.0,0.0,0.0,0.0,66.53999638557434,64,384,1,64
0.5,64.0,384,8,0,128.0,0.0,19.5,0.0,0.0,35.548,35.548,67.04155158996582,64,384,1,64
0.5,64.0,384,8,0,0.0,0.0,16.3,0.0,0.0,0.0,0.0,67.53807425498962,64,384,1,64
0.5,64.0,384,8,0,128.0,0.0,19.3,0.0,0.0,34.446,34.446,68.04027915000916,64,384,1,64
0.5,64.0,384,8,0,0.0,0.0,16.3,0.0,0.0,0.0,0.0,68.53574538230896,64,384,1,64
0.5,64.0,384,8,0,128.0,0.0,19.4,0.0,0.0,34.776,34.776,69.04044079780579,64,384,1,64
0.5,64.0,384,8,0,0.0,0.0,16.2,0.0,0.0,0.0,0.0,69.53566026687622,64,384,1,64
9.99,64.0,384,8,8,64.06,0.8008,96.0,943.334,0.343,963.048,1906.726,79.5266547203064,64,384,1,64
0.51,64.0,384,8,0,125.98,0.0,19.3,0.0,0.0,33.866,33.866,80.03446364402771,64,384,1,64
0.5,64.0,384,8,0,0.0,0.0,16.2,0.0,0.0,0.0,0.0,80.53675746917725,64,384,1,64
0.5,64.0,384,8,0,128.0,0.0,19.5,0.0,0.0,35.022,35.022,81.03312182426453,64,384,1,64
0.5,64.0,384,8,0,0.0,0.0,16.2,0.0,0.0,0.0,0.0,81.53508448600769,64,384,1,64
0.5,64.0,384,8,2,127.74,0.0,19.4,0.0,0.0,34.641,34.641,82.03564405441284,64,384,1,64
0.5,64.0,384,8,0,0.0,0.0,16.2,0.0,0.0,0.0,0.0,82.53864526748657,64,384,1,64
0.5,64.0,384,8,0,128.0,0.0,19.3,0.0,0.0,34.402,34.402,83.040118932724,64,384,1,64
0.5,64.0,384,8,0,0.0,0.0,16.2,0.0,0.0,0.0,0.0,83.53959488868713,64,384,1,64
0.5,64.0,384,8,0,128.0,0.0,19.4,0.0,0.0,33.486,33.486,84.0354483127594,64,384,1,64
0.5,64.0,384,8,0,0.0,0.0,16.2,0.0,0.0,0.0,0.0,84.5363245010376,64,384,1,64
0.5,64.0,384,8,0,128.0,0.0,19.4,0.0,0.0,35.536,35.536,85.03292512893677,64,384,1,64
0.5,64.0,384,8,0,0.0,0.0,16.3,0.0,0.0,0.0,0.0,85.53416061401367,64,384,1,64
0.5,64.0,384,8,0,128.0,0.0,19.4,0.0,0.0,35.242,35.242,86.03280091285706,64,384,1,64
0.5,64.0,384,8,0,0.0,0.0,16.3,0.0,0.0,0.0,0.0,86.53519177436829,64,384,1,64
0.5,64.0,384,8,0,128.0,0.0,19.5,0.0,0.0,34.584,34.584,87.03468441963196,64,384,1,64
0.5,64.0,384,8,0,0.0,0.0,16.2,0.0,0.0,0.0,0.0,87.53628492355347,64,384,1,64
0.5,64.0,384,8,3,127.74,0.0,19.6,0.0,0.0,33.707,33.707,88.03667283058167,64,384,1,64
0.5,64.0,384,8,0,0.0,0.0,16.2,0.0,0.0,0.0,0.0,88.54037666320801,64,384,1,64
0.5,64.0,384,8,0,128.0,0.0,19.5,0.0,0.0,34.056,34.056,89.03652334213257,64,384,1,64
0.5,64.0,384,8,0,0.0,0.0,16.3,0.0,0.0,0.0,0.0,89.53434658050537,64,384,1,64
0.5,64.0,384,8,0,128.0,0.0,19.4,0.0,0.0,36.038,36.038,90.04099369049072,64,384,1,64
0.5,64.0,384,8,0,0.0,0.0,16.2,0.0,0.0,0.0,0.0,90.5354220867157,64,384,1,64
0.5,64.0,384,8,0,128.0,0.0,19.5,0.0,0.0,35.796,35.796,91.0414445400238,64,384,1,64
0.5,64.0,384,8,0,0.0,0.0,16.5,0.0,0.0,0.0,0.0,91.54016089439392,64,384,1,64
0.5,64.0,384,8,0,128.0,0.0,19.8,0.0,0.0,34.062,34.062,92.03669810295105,64,384,1,64
0.5,64.0,384,8,0,0.0,0.0,16.5,0.0,0.0,0.0,0.0,92.53950715065002,64,384,1,64
0.5,64.0,384,8,0,127.49,0.0,19.7,0.0,0.0,31.649,31.649,93.03830170631409,64,384,1,64
0.5,64.0,384,8,0,0.0,0.0,16.5,0.0,0.0,0.0,0.0,93.54363918304443,64,384,1,64
0.5,64.0,384,8,4,128.0,0.0,19.5,0.0,0.0,35.68,35.68,94.04091429710388,64,384,1,64
0.5,64.0,384,8,0,0.0,0.0,16.2,0.0,0.0,0.0,0.0,94.54345083236694,64,384,1,64
0.5,64.0,384,8,0,128.0,0.0,19.4,0.0,0.0,33.75,33.75,95.04092144966125,64,384,1,64
0.5,64.0,384,8,0,0.0,0.0,16.3,0.0,0.0,0.0,0.0,95.54334855079651,64,384,1,64
0.5,64.0,384,8,0,128.0,0.0,19.4,0.0,0.0,36.402,36.402,96.04075407981873,64,384,1,64
0.5,64.0,384,8,0,0.0,0.0,16.3,0.0,0.0,0.0,0.0,96.53767132759094,64,384,1,64
0.5,64.0,384,8,0,128.0,0.0,19.5,0.0,0.0,36.316,36.316,97.04076433181763,64,384,1,64
0.5,64.0,384,8,0,0.0,0.0,16.3,0.0,0.0,0.0,0.0,97.54360556602478,64,384,1,64
0.5,64.0,384,8,0,128.0,0.0,19.5,0.0,0.0,36.686,36.686,98.04097938537598,64,384,1,64
0.5,64.0,384,8,0,0.0,0.0,16.2,0.0,0.0,0.0,0.0,98.53758215904236,64,384,1,64
0.5,64.0,384,8,0,128.0,0.0,19.4,0.0,0.0,36.428,36.428,99.0415289402008,64,384,1,64
0.5,64.0,384,8,0,0.0,0.0,16.3,0.0,0.0,0.0,0.0,99.53868269920349,64,384,1,64
0.5,64.0,384,8,5,128.0,0.0,19.5,0.0,0.0,34.502,34.502,100.04326176643372,64,384,1,64
0.5,64.0,384,8,0,0.0,0.0,16.2,0.0,0.0,0.0,0.0,100.58217787742615,64,384,1,64
0.5,64.0,384,8,0,128.0,0.0,19.3,0.0,0.0,36.23,36.23,101.04006862640381,64,384,1,64
0.5,64.0,384,8,0,0.0,0.0,16.2,0.0,0.0,0.0,0.0,101.53725838661194,64,384,1,64
0.5,64.0,384,8,0,128.0,0.0,19.3,0.0,0.0,35.216,35.216,102.04184246063232,64,384,1,64
0.5,64.0,384,8,0,0.0,0.0,16.3,0.0,0.0,0.0,0.0,102.53993797302246,64,384,1,64
0.5,64.0,384,8,0,128.0,0.0,19.4,0.0,0.0,36.168,36.168,103.04084801673889,64,384,1,64
0.5,64.0,384,8,0,0.0,0.0,16.3,0.0,0.0,0.0,0.0,103.53835964202881,64,384,1,64
0.5,64.0,384,8,0,128.0,0.0,19.5,0.0,0.0,35.722,35.722,104.04161667823792,64,384,1,64
0.5,64.0,384,8,0,0.0,0.0,16.3,0.0,0.0,0.0,0.0,104.53900837898254,64,384,1,64
0.5,64.0,384,8,0,128.0,0.0,19.4,0.0,0.0,36.172,36.172,105.04109978675842,64,384,1,64
0.5,64.0,384,8,0,0.0,0.0,16.3,0.0,0.0,0.0,0.0,105.53663682937622,64,384,1,64
0.5,64.0,384,8,6,128.0,0.0,19.4,0.0,0.0,36.256,36.256,106.04013180732727,64,384,1,64
0.5,64.0,384,8,0,0.0,0.0,16.3,0.0,0.0,0.0,0.0,106.5436704158783,64,384,1,64
0.5,64.0,384,8,0,128.0,0.0,19.6,0.0,0.0,36.822,36.822,107.04151344299316,64,384,1,64
0.5,64.0,384,8,0,0.0,0.0,16.2,0.0,0.0,0.0,0.0,107.5432460308075,64,384,1,64
0.5,64.0,384,8,0,128.0,0.0,19.5,0.0,0.0,36.432,36.432,108.04076099395752,64,384,1,64
0.5,64.0,384,8,0,0.0,0.0,16.3,0.0,0.0,0.0,0.0,108.5432608127594,64,384,1,64
0.5,64.0,384,8,0,128.0,0.0,19.5,0.0,0.0,35.764,35.764,109.04122138023376,64,384,1,64
0.5,64.0,384,8,0,0.0,0.0,16.3,0.0,0.0,0.0,0.0,109.53789901733398,64,384,1,64
0.5,64.0,384,8,0,128.0,0.0,19.4,0.0,0.0,33.72,33.72,110.04164266586304,64,384,1,64
0.5,64.0,384,8,0,0.0,0.0,16.3,0.0,0.0,0.0,0.0,110.53872680664062,64,384,1,64
0.5,64.0,384,8,0,128.0,0.0,19.3,0.0,0.0,36.616,36.616,111.04445767402649,64,384,1,64
0.5,64.0,384,8,0,0.0,0.0,16.4,0.0,0.0,0.0,0.0,111.53721404075623,64,384,1,64
0.5,64.0,384,8,7,128.0,0.0,19.8,0.0,0.0,35.656,35.656,112.04127907752991,64,384,1,64
0.5,64.0,384,8,0,0.0,0.0,16.6,0.0,0.0,0.0,0.0,112.54001069068909,64,384,1,64
0.5,64.0,384,8,0,128.0,0.0,19.8,0.0,0.0,32.846,32.846,113.04124760627747,64,384,1,64
0.5,64.0,384,8,0,0.0,0.0,16.5,0.0,0.0,0.0,0.0,113.54833364486694,64,384,1,64
0.5,64.0,384,8,0,128.0,0.0,19.7,0.0,0.0,35.916,35.916,114.04306244850159,64,384,1,64
0.5,64.0,384,8,0,0.0,0.0,16.6,0.0,0.0,0.0,0.0,114.53729557991028,64,384,1,64
0.5,64.0,384,8,0,128.0,0.0,19.3,0.0,0.0,32.6,32.6,115.03983807563782,64,384,1,64
0.5,64.0,384,8,0,0.0,0.0,16.3,0.0,0.0,0.0,0.0,115.53643465042114,64,384,1,64
0.5,64.0,384,8,0,128.0,0.0,19.5,0.0,0.0,36.512,36.512,116.04134321212769,64,384,1,64
0.5,64.0,384,8,0,0.0,0.0,16.2,0.0,0.0,0.0,0.0,116.5387794971466,64,384,1,64
0.5,64.0,384,8,0,128.0,0.0,19.4,0.0,0.0,36.168,36.168,117.04103779792786,64,384,1,64
0.5,64.0,384,8,0,0.0,0.0,16.2,0.0,0.0,0.0,0.0,117.53879261016846,64,384,1,64
9.99,64.0,384,8,8,64.08,0.801,96.0,943.687,0.343,963.398,1907.428,127.52440166473389,64,384,1,64
0.51,64.0,384,8,0,125.49,0.0,19.2,0.0,0.0,34.855,34.855,128.03394484519958,64,384,1,64
0.5,64.0,384,8,0,0.0,0.0,16.2,0.0,0.0,0.0,0.0,128.5350856781006,64,384,1,64
0.5,64.0,384,8,0,128.0,0.0,19.4,0.0,0.0,35.836,35.836,129.03450560569763,64,384,1,64
0.5,64.0,384,8,0,0.0,0.0,16.3,0.0,0.0,0.0,0.0,129.53827023506165,64,384,1,64
0.5,64.0,384,8,2,128.0,0.0,19.5,0.0,0.0,36.448,36.448,130.0338294506073,64,384,1,64
0.5,64.0,384,8,0,0.0,0.0,16.3,0.0,0.0,0.0,0.0,130.53957676887512,64,384,1,64
0.5,64.0,384,8,0,128.0,0.0,19.5,0.0,0.0,32.828,32.828,131.0332214832306,64,384,1,64
0.5,64.0,384,8,0,0.0,0.0,16.3,0.0,0.0,0.0,0.0,131.53181147575378,64,384,1,64
0.5,64.0,384,8,0,128.0,0.0,19.3,0.0,0.0,34.708,34.708,132.03478074073792,64,384,1,64
0.5,64.0,384,8,0,0.0,0.0,16.5,0.0,0.0,0.0,0.0,132.532879114151,64,384,1,64
0.5,64.0,384,8,0,127.74,0.0,19.7,0.0,0.0,35.371,35.371,133.0349555015564,64,384,1,64
0.5,64.0,384,8,0,0.0,0.0,16.6,0.0,0.0,0.0,0.0,133.5354642868042,64,384,1,64
0.5,64.0,384,8,0,128.0,0.0,19.7,0.0,0.0,35.534,35.534,134.03288435935974,64,384,1,64
0.5,64.0,384,8,0,0.0,0.0,16.6,0.0,0.0,0.0,0.0,134.53445315361023,64,384,1,64
0.5,64.0,384,8,0,128.0,0.0,19.7,0.0,0.0,35.256,35.256,135.0352749824524,64,384,1,64
0.5,64.0,384,8,0,0.0,0.0,16.3,0.0,0.0,0.0,0.0,135.53535914421082,64,384,1,64
0.5,64.0,384,8,3,128.0,0.0,19.5,0.0,0.0,35.95,35.95,136.03301095962524,64,384,1,64
0.5,64.0,384,8,0,0.0,0.0,16.3,0.0,0.0,0.0,0.0,136.54103088378906,64,384,1,64
0.5,64.0,384,8,0,128.0,0.0,19.5,0.0,0.0,35.88,35.88,137.0329089164734,64,384,1,64
0.5,64.0,384,8,0,0.0,0.0,16.2,0.0,0.0,0.0,0.0,137.53576469421387,64,384,1,64
0.5,64.0,384,8,0,128.0,0.0,19.4,0.0,0.0,35.714,35.714,138.03410267829895,64,384,1,64
0.5,64.0,384,8,0,0.0,0.0,16.3,0.0,0.0,0.0,0.0,138.5365264415741,64,384,1,64
0.5,64.0,384,8,0,128.0,0.0,19.5,0.0,0.0,33.71,33.71,139.03334212303162,64,384,1,64
0.5,64.0,384,8,0,0.0,0.0,16.3,0.0,0.0,0.0,0.0,139.53398299217224,64,384,1,64
0.5,64.0,384,8,0,128.0,0.0,19.5,0.0,0.0,35.588,35.588,140.0348596572876,64,384,1,64
0.5,64.0,384,8,0,0.0,0.0,16.3,0.0,0.0,0.0,0.0,140.53721070289612,64,384,1,64
0.5,64.0,384,8,0,128.0,0.0,19.5,0.0,0.0,36.634,36.634,141.03387093544006,64,384,1,64
0.5,64.0,384,8,0,0.0,0.0,16.2,0.0,0.0,0.0,0.0,141.5390133857727,64,384,1,64
0.5,64.0,384,8,4,128.0,0.0,19.4,0.0,0.0,35.644,35.644,142.033851146698,64,384,1,64
0.5,64.0,384,8,0,0.0,0.0,16.3,0.0,0.0,0.0,0.0,142.53638076782227,64,384,1,64
0.5,64.0,384,8,0,128.0,0.0,19.4,0.0,0.0,35.938,35.938,143.0330250263214,64,384,1,64
0.5,64.0,384,8,0,0.0,0.0,16.3,0.0,0.0,0.0,0.0,143.53403759002686,64,384,1,64
0.5,64.0,384,8,0,128.0,0.0,19.5,0.0,0.0,35.76,35.76,144.03418350219727,64,384,1,64
0.5,64.0,384,8,0,0.0,0.0,16.3,0.0,0.0,0.0,0.0,144.54186415672302,64,384,1,64
0.5,64.0,384,8,0,128.0,0.0,19.5,0.0,0.0,33.574,33.574,145.03344917297363,64,384,1,64
0.5,64.0,384,8,0,0.0,0.0,16.3,0.0,0.0,0.0,0.0,145.5376284122467,64,384,1,64
0.5,64.0,384,8,0,128.0,0.0,19.4,0.0,0.0,36.414,36.414,146.03289318084717,64,384,1,64
0.5,64.0,384,8,0,0.0,0.0,16.3,0.0,0.0,0.0,0.0,146.5326211452484,64,384,1,64
0.5,64.0,384,8,0,128.0,0.0,19.4,0.0,0.0,35.46,35.46,147.03498125076294,64,384,1,64
0.5,64.0,384,8,0,0.0,0.0,16.2,0.0,0.0,0.0,0.0,147.5349178314209,64,384,1,64
0.5,64.0,384,8,5,128.0,0.0,19.5,0.0,0.0,35.75,35.75,148.03393626213074,64,384,1,64
0.5,64.0,384,8,0,0.0,0.0,16.2,0.0,0.0,0.0,0.0,148.53969812393188,64,384,1,64
0.5,64.0,384,8,0,128.0,0.0,19.4,0.0,0.0,35.666,35.666,149.0332794189453,64,384,1,64
0.5,64.0,384,8,0,0.0,0.0,16.2,0.0,0.0,0.0,0.0,149.54004669189453,64,384,1,64
0.5,64.0,384,8,0,128.0,0.0,19.3,0.0,0.0,35.91,35.91,150.03335332870483,64,384,1,64
0.5,64.0,384,8,0,0.0,0.0,16.2,0.0,0.0,0.0,0.0,150.53346705436707,64,384,1,64
0.5,64.0,384,8,0,128.0,0.0,19.3,0.0,0.0,34.64,34.64,151.0348768234253,64,384,1,64
0.5,64.0,384,8,0,0.0,0.0,16.2,0.0,0.0,0.0,0.0,151.53893899917603,64,384,1,64
0.5,64.0,384,8,0,128.0,0.0,19.5,0.0,0.0,36.478,36.478,152.03369402885437,64,384,1,64
0.5,64.0,384,8,0,0.0,0.0,16.2,0.0,0.0,0.0,0.0,152.53667974472046,64,384,1,64
0.5,64.0,384,8,0,128.0,0.0,19.5,0.0,0.0,35.846,35.846,153.033385515213,64,384,1,64
0.5,64.0,384,8,0,0.0,0.0,16.6,0.0,0.0,0.0,0.0,153.53470420837402,64,384,1,64
0.5,64.0,384,8,6,128.0,0.0,19.7,0.0,0.0,36.692,36.692,154.03295969963074,64,384,1,64
0.5,64.0,384,8,0,0.0,0.0,16.6,0.0,0.0,0.0,0.0,154.53402876853943,64,384,1,64
0.5,64.0,384,8,0,127.74,0.0,19.6,0.0,0.0,35.411,35.411,155.0350525379181,64,384,1,64
0.5,64.0,384,8,0,0.0,0.0,16.5,0.0,0.0,0.0,0.0,155.53856205940247,64,384,1,64
0.5,64.0,384,8,0,128.0,0.0,19.4,0.0,0.0,35.506,35.506,156.0349142551422,64,384,1,64
0.5,64.0,384,8,0,0.0,0.0,16.3,0.0,0.0,0.0,0.0,156.53560209274292,64,384,1,64
0.5,64.0,384,8,0,128.0,0.0,19.5,0.0,0.0,34.662,34.662,157.03362226486206,64,384,1,64
0.5,64.0,384,8,0,0.0,0.0,16.2,0.0,0.0,0.0,0.0,157.53542256355286,64,384,1,64
0.5,64.0,384,8,0,128.0,0.0,19.4,0.0,0.0,36.182,36.182,158.03300523757935,64,384,1,64
0.5,64.0,384,8,0,0.0,0.0,16.3,0.0,0.0,0.0,0.0,158.53796529769897,64,384,1,64
0.5,64.0,384,8,0,128.0,0.0,19.5,0.0,0.0,32.9,32.9,159.03354835510254,64,384,1,64
0.5,64.0,384,8,0,0.0,0.0,16.2,0.0,0.0,0.0,0.0,159.53634524345398,64,384,1,64
0.5,64.0,384,8,7,88.0,0.0,18.5,0.0,0.0,21.92,21.92,160.03473901748657,64,384,1,64
0.5,64.0,384,8,0,40.0,0.0,17.1,0.0,0.0,7.858,7.858,160.53495335578918,64,384,1,64
0.5,64.0,384,8,0,128.0,0.0,19.4,0.0,0.0,35.666,35.666,161.03506302833557,64,384,1,64
0.5,64.0,384,8,0,0.0,0.0,16.3,0.0,0.0,0.0,0.0,161.53678798675537,64,384,1,64
0.5,64.0,384,8,0,128.0,0.0,19.4,0.0,0.0,35.736,35.736,162.03514170646667,64,384,1,64
0.5,64.0,384,8,0,0.0,0.0,16.2,0.0,0.0,0.0,0.0,162.53715300559998,64,384,1,64
0.5,64.0,384,8,0,128.0,0.0,19.4,0.0,0.0,35.796,35.796,163.0350432395935,64,384,1,64
0.5,64.0,384,8,0,0.0,0.0,16.2,0.0,0.0,0.0,0.0,163.53311848640442,64,384,1,64
0.5,64.0,384,8,0,128.0,0.0,19.4,0.0,0.0,35.758,35.758,164.03436374664307,64,384,1,64
0.5,64.0,384,8,0,0.0,0.0,16.2,0.0,0.0,0.0,0.0,164.5353856086731,64,384,1,64
0.5,64.0,384,8,0,128.0,0.0,19.5,0.0,0.0,35.944,35.944,165.03364515304565,64,384,1,64
0.5,64.0,384,8,0,0.0,0.0,16.3,0.0,0.0,0.0,0.0,165.53937292099,64,384,1,64
9.99,64.0,384,8,8,64.07,0.8009,96.0,943.447,0.349,963.274,1907.07,175.52385783195496,64,384,1,64
0.51,64.0,384,8,0,125.24,0.0,19.5,0.0,0.0,33.299,33.299,176.03501772880554,64,384,1,64
0.5,64.0,384,8,0,0.0,0.0,16.5,0.0,0.0,0.0,0.0,176.53661155700684,64,384,1,64
0.5,64.0,384,8,0,128.0,0.0,19.4,0.0,0.0,35.72,35.72,177.0355246067047,64,384,1,64
0.5,64.0,384,8,0,0.0,0.0,16.2,0.0,0.0,0.0,0.0,177.53590488433838,64,384,1,64
0.5,64.0,384,8,2,116.0,0.0,19.1,0.0,0.0,27.832,27.832,178.03656339645386,64,384,1,64
0.5,64.0,384,8,0,12.0,0.0,16.5,0.0,0.0,2.438,2.438,178.5375771522522,64,384,1,64
0.5,64.0,384,8,0,128.0,0.0,19.5,0.0,0.0,35.938,35.938,179.0343780517578,64,384,1,64
0.5,64.0,384,8,0,0.0,0.0,16.3,0.0,0.0,0.0,0.0,179.54057574272156,64,384,1,64
0.5,64.0,384,8,0,127.74,0.0,19.4,0.0,0.0,35.731,35.731,180.03550672531128,64,384,1,64
0.5,64.0,384,8,0,0.0,0.0,16.3,0.0,0.0,0.0,0.0,180.5417549610138,64,384,1,64
0.5,64.0,384,8,0,128.0,0.0,19.5,0.0,0.0,35.116,35.116,181.03518080711365,64,384,1,64
0.5,64.0,384,8,0,0.0,0.0,16.3,0.0,0.0,0.0,0.0,181.53758907318115,64,384,1,64
0.5,64.0,384,8,0,128.0,0.0,19.5,0.0,0.0,35.572,35.572,182.03503513336182,64,384,1,64
0.5,64.0,384,8,0,0.0,0.0,16.2,0.0,0.0,0.0,0.0,182.53565549850464,64,384,1,64
0.5,64.0,384,8,0,128.0,0.0,19.4,0.0,0.0,35.6,35.6,183.03578209877014,64,384,1,64
0.5,64.0,384,8,0,0.0,0.0,16.3,0.0,0.0,0.0,0.0,183.53821682929993,64,384,1,64
0.5,64.0,384,8,3,128.0,0.0,19.5,0.0,0.0,35.542,35.542,184.03604221343994,64,384,1,64
0.5,64.0,384,8,0,0.0,0.0,16.3,0.0,0.0,0.0,0.0,184.53506350517273,64,384,1,64
0.5,64.0,384,8,0,128.0,0.0,19.4,0.0,0.0,35.322,35.322,185.03360986709595,64,384,1,64
0.5,64.0,384,8,0,0.0,0.0,16.2,0.0,0.0,0.0,0.0,185.5394310951233,64,384,1,64
0.5,64.0,384,8,0,128.0,0.0,19.4,0.0,0.0,36.364,36.364,186.03431844711304,64,384,1,64
0.5,64.0,384,8,0,0.0,0.0,16.2,0.0,0.0,0.0,0.0,186.53578734397888,64,384,1,64
0.5,64.0,384,8,0,128.0,0.0,19.3,0.0,0.0,34.626,34.626,187.0345356464386,64,384,1,64
0.5,64.0,384,8,0,0.0,0.0,16.2,0.0,0.0,0.0,0.0,187.5371482372284,64,384,1,64
0.5,64.0,384,8,0,128.0,0.0,19.5,0.0,0.0,35.694,35.694,188.03541088104248,64,384,1,64
0.5,64.0,384,8,0,0.0,0.0,16.2,0.0,0.0,0.0,0.0,188.53654289245605,64,384,1,64
0.5,64.0,384,8,0,126.98,0.0,19.6,0.0,0.0,33.129,33.129,189.03969526290894,64,384,1,64
0.5,64.0,384,8,0,0.0,0.0,16.2,0.0,0.0,0.0,0.0,189.54555773735046,64,384,1,64
0.5,64.0,384,8,4,128.0,0.0,19.3,0.0,0.0,34.474,34.474,190.0445773601532,64,384,1,64
0.5,64.0,384,8,0,0.0,0.0,16.3,0.0,0.0,0.0,0.0,190.54209637641907,64,384,1,64
0.5,64.0,384,8,0,128.0,0.0,19.6,0.0,0.0,34.842,34.842,191.04456496238708,64,384,1,64
0.5,64.0,384,8,0,0.0,0.0,16.2,0.0,0.0,0.0,0.0,191.5453052520752,64,384,1,64
0.5,64.0,384,8,0,128.0,0.0,19.4,0.0,0.0,33.948,33.948,192.03697443008423,64,384,1,64
0.5,64.0,384,8,0,0.0,0.0,16.2,0.0,0.0,0.0,0.0,192.54128742218018,64,384,1,64
0.5,64.0,384,8,0,127.49,0.0,19.6,0.0,0.0,33.177,33.177,193.0410897731781,64,384,1,64
0.5,64.0,384,8,0,0.0,0.0,16.2,0.0,0.0,0.0,0.0,193.54089379310608,64,384,1,64
0.5,64.0,384,8,0,128.0,0.0,19.5,0.0,0.0,33.724,33.724,194.04114961624146,64,384,1,64
0.5,64.0,384,8,0,0.0,0.0,16.6,0.0,0.0,0.0,0.0,194.54333209991455,64,384,1,64
0.5,64.0,384,8,0,128.0,0.0,19.8,0.0,0.0,32.91,32.91,195.0396764278412,64,384,1,64
0.5,64.0,384,8,0,0.0,0.0,16.5,0.0,0.0,0.0,0.0,195.5470359325409,64,384,1,64
0.51,64.0,384,8,5,125.74,0.0,19.8,0.0,0.0,31.244,31.244,196.05114817619324,64,384,1,64
0.5,64.0,384,8,0,0.0,0.0,16.5,0.0,0.0,0.0,0.0,196.55209851264954,64,384,1,64
0.5,64.0,384,8,0,128.0,0.0,19.7,0.0,0.0,34.064,34.064,197.05438590049744,64,384,1,64
0.5,64.0,384,8,0,0.0,0.0,16.3,0.0,0.0,0.0,0.0,197.5536608695984,64,384,1,64
0.5,64.0,384,8,0,128.0,0.0,19.4,0.0,0.0,34.122,34.122,198.04977250099182,64,384,1,64
0.5,64.0,384,8,0,0.0,0.0,16.3,0.0,0.0,0.0,0.0,198.55579471588135,64,384,1,64
0.5,64.0,384,8,0,128.0,0.0,19.4,0.0,0.0,34.702,34.702,199.05426788330078,64,384,1,64
0.5,64.0,384,8,0,0.0,0.0,16.3,0.0,0.0,0.0,0.0,199.55333495140076,64,384,1,64
0.5,64.0,384,8,0,128.0,0.0,19.5,0.0,0.0,34.354,34.354,200.0545904636383,64,384,1,64
0.5,64.0,384,8,0,0.0,0.0,16.3,0.0,0.0,0.0,0.0,200.5557518005371,64,384,1,64
0.5,64.0,384,8,0,128.0,0.0,19.3,0.0,0.0,36.16,36.16,201.05101799964905,64,384,1,64
0.5,64.0,384,8,0,0.0,0.0,16.3,0.0,0.0,0.0,0.0,201.5562047958374,64,384,1,64
0.5,64.0,384,8,6,128.0,0.0,19.4,0.0,0.0,34.272,34.272,202.0543670654297,64,384,1,64
0.5,64.0,384,8,0,0.0,0.0,16.3,0.0,0.0,0.0,0.0,202.55455923080444,64,384,1,64
0.5,64.0,384,8,0,128.0,0.0,19.5,0.0,0.0,34.694,34.694,203.0546157360077,64,384,1,64
0.5,64.0,384,8,0,0.0,0.0,16.3,0.0,0.0,0.0,0.0,203.55165433883667,64,384,1,64
0.5,64.0,384,8,0,128.0,0.0,19.2,0.0,0.0,34.282,34.282,204.0513780117035,64,384,1,64
0.5,64.0,384,8,0,0.0,0.0,16.1,0.0,0.0,0.0,0.0,204.5548677444458,64,384,1,64
0.5,64.0,384,8,0,128.0,0.0,19.4,0.0,0.0,34.638,34.638,205.05377197265625,64,384,1,64
0.5,64.0,384,8,0,0.0,0.0,16.3,0.0,0.0,0.0,0.0,205.5500180721283,64,384,1,64
0.5,64.0,384,8,0,128.0,0.0,19.4,0.0,0.0,36.274,36.274,206.05091309547424,64,384,1,64
0.5,64.0,384,8,0,0.0,0.0,16.3,0.0,0.0,0.0,0.0,206.55336713790894,64,384,1,64
0.5,64.0,384,8,0,128.0,0.0,19.5,0.0,0.0,34.832,34.832,207.05342626571655,64,384,1,64
0.5,64.0,384,8,0,0.0,0.0,16.2,0.0,0.0,0.0,0.0,207.55365920066833,64,384,1,64
0.5,64.0,384,8,7,128.0,0.0,19.4,0.0,0.0,33.63,33.63,208.05469489097595,64,384,1,64
0.5,64.0,384,8,0,0.0,0.0,16.3,0.0,0.0,0.0,0.0,208.55141425132751,64,384,1,64
0.5,64.0,384,8,0,128.0,0.0,19.6,0.0,0.0,33.886,33.886,209.0497124195099,64,384,1,64
0.5,64.0,384,8,0,0.0,0.0,16.3,0.0,0.0,0.0,0.0,209.55558681488037,64,384,1,64
0.5,64.0,384,8,0,128.0,0.0,19.5,0.0,0.0,35.71,35.71,210.05217480659485,64,384,1,64
0.5,64.0,384,8,0,0.0,0.0,16.3,0.0,0.0,0.0,0.0,210.55427885055542,64,384,1,64
0.5,64.0,384,8,0,128.0,0.0,19.5,0.0,0.0,36.04,36.04,211.05158615112305,64,384,1,64
0.5,64.0,384,8,0,0.0,0.0,16.3,0.0,0.0,0.0,0.0,211.5512399673462,64,384,1,64
0.5,64.0,384,8,0,128.0,0.0,19.3,0.0,0.0,35.412,35.412,212.05133485794067,64,384,1,64
0.5,64.0,384,8,0,0.0,0.0,16.3,0.0,0.0,0.0,0.0,212.55399346351624,64,384,1,64
0.5,64.0,384,8,0,128.0,0.0,19.4,0.0,0.0,35.048,35.048,213.05229330062866,64,384,1,64
0.5,64.0,384,8,0,0.0,0.0,16.3,0.0,0.0,0.0,0.0,213.5529170036316,64,384,1,64
9.97,64.0,384,8,8,64.19,0.8023,96.1,945.108,0.339,964.846,1910.292,223.52018237113953,64,384,1,64
0.51,64.0,384,8,0,124.27,0.0,19.3,0.0,0.0,34.88,34.88,224.03491163253784,64,384,1,64
0.5,64.0,384,8,0,0.0,0.0,16.2,0.0,0.0,0.0,0.0,224.5331470966339,64,384,1,64
0.5,64.0,384,8,0,128.0,0.0,19.3,0.0,0.0,36.54,36.54,225.0355498790741,64,384,1,64
0.5,64.0,384,8,0,0.0,0.0,16.3,0.0,0.0,0.0,0.0,225.53642320632935,64,384,1,64
0.5,64.0,384,8,2,128.0,0.0,19.3,0.0,0.0,35.734,35.734,226.03564310073853,64,384,1,64
0.5,64.0,384,8,0,0.0,0.0,16.2,0.0,0.0,0.0,0.0,226.53535747528076,64,384,1,64
0.5,64.0,384,8,0,128.0,0.0,19.5,0.0,0.0,36.416,36.416,227.03522634506226,64,384,1,64
0.5,64.0,384,8,0,0.0,0.0,16.2,0.0,0.0,0.0,0.0,227.53377556800842,64,384,1,64
0.5,64.0,384,8,0,127.74,0.0,19.3,0.0,0.0,34.525,34.525,228.03926587104797,64,384,1,64
0.5,64.0,384,8,0,0.0,0.0,16.3,0.0,0.0,0.0,0.0,228.5365436077118,64,384,1,64
0.5,64.0,384,8,0,128.0,0.0,19.5,0.0,0.0,36.768,36.768,229.03621363639832,64,384,1,64
0.5,64.0,384,8,0,0.0,0.0,16.3,0.0,0.0,0.0,0.0,229.53427052497864,64,384,1,64
0.5,64.0,384,8,0,128.0,0.0,19.3,0.0,0.0,35.668,35.668,230.035085439682,64,384,1,64
0.5,64.0,384,8,0,0.0,0.0,16.2,0.0,0.0,0.0,0.0,230.53459119796753,64,384,1,64
0.5,64.0,384,8,0,128.0,0.0,19.5,0.0,0.0,35.73,35.73,231.03617143630981,64,384,1,64
0.5,64.0,384,8,0,0.0,0.0,16.3,0.0,0.0,0.0,0.0,231.5362708568573,64,384,1,64
0.5,64.0,384,8,3,128.0,0.0,19.5,0.0,0.0,35.808,35.808,232.03532576560974,64,384,1,64
0.5,64.0,384,8,0,0.0,0.0,16.2,0.0,0.0,0.0,0.0,232.54220414161682,64,384,1,64
0.5,64.0,384,8,0,128.0,0.0,19.4,0.0,0.0,36.048,36.048,233.03543615341187,64,384,1,64
0.5,64.0,384,8,0,0.0,0.0,16.3,0.0,0.0,0.0,0.0,233.5697340965271,64,384,1,64
0.5,64.0,384,8,0,0.0,0.0,16.3,0.0,0.0,0.0,0.0,234.068190574646,64,384,1,64
0.5,64.0,384,8,0,128.0,0.0,19.4,0.0,0.0,34.046,34.046,234.53783178329468,64,384,1,64
0.5,64.0,384,8,0,128.0,0.0,19.4,0.0,0.0,35.2,35.2,235.03542017936707,64,384,1,64
0.5,64.0,384,8,0,0.0,0.0,16.3,0.0,0.0,0.0,0.0,235.53502678871155,64,384,1,64
0.5,64.0,384,8,0,128.0,0.0,19.7,0.0,0.0,35.528,35.528,236.03537487983704,64,384,1,64
0.5,64.0,384,8,0,0.0,0.0,16.6,0.0,0.0,0.0,0.0,236.5412998199463,64,384,1,64
0.5,64.0,384,8,0,128.0,0.0,19.7,0.0,0.0,34.454,34.454,237.03455448150635,64,384,1,64
0.5,64.0,384,8,0,0.0,0.0,16.6,0.0,0.0,0.0,0.0,237.53685545921326,64,384,1,64
0.5,64.0,384,8,4,128.0,0.0,19.7,0.0,0.0,35.502,35.502,238.03652572631836,64,384,1,64
0.5,64.0,384,8,0,0.0,0.0,16.4,0.0,0.0,0.0,0.0,238.53994727134705,64,384,1,64
0.5,64.0,384,8,0,128.0,0.0,19.4,0.0,0.0,36.496,36.496,239.03533816337585,64,384,1,64
0.5,64.0,384,8,0,0.0,0.0,16.2,0.0,0.0,0.0,0.0,239.54235553741455,64,384,1,64
0.5,64.0,384,8,0,128.0,0.0,19.4,0.0,0.0,36.032,36.032,240.03467416763306,64,384,1,64
0.5,64.0,384,8,0,0.0,0.0,16.3,0.0,0.0,0.0,0.0,240.5342411994934,64,384,1,64
0.5,64.0,384,8,0,128.0,0.0,19.4,0.0,0.0,35.978,35.978,241.03512382507324,64,384,1,64
0.5,64.0,384,8,0,0.0,0.0,16.2,0.0,0.0,0.0,0.0,241.53513264656067,64,384,1,64
0.5,64.0,384,8,0,128.0,0.0,19.4,0.0,0.0,35.832,35.832,242.03481531143188,64,384,1,64
0.5,64.0,384,8,0,0.0,0.0,16.2,0.0,0.0,0.0,0.0,242.53893041610718,64,384,1,64
0.5,64.0,384,8,0,128.0,0.0,19.5,0.0,0.0,30.46,30.46,243.0359628200531,64,384,1,64
0.5,64.0,384,8,0,0.0,0.0,16.3,0.0,0.0,0.0,0.0,243.53650546073914,64,384,1,64
0.5,64.0,384,8,5,128.0,0.0,19.3,0.0,0.0,35.5,35.5,244.03461241722107,64,384,1,64
0.5,64.0,384,8,0,0.0,0.0,16.3,0.0,0.0,0.0,0.0,244.5420219898224,64,384,1,64
0.5,64.0,384,8,0,127.74,0.0,19.4,0.0,0.0,35.705,35.705,245.0364317893982,64,384,1,64
0.5,64.0,384,8,0,0.0,0.0,16.3,0.0,0.0,0.0,0.0,245.53843069076538,64,384,1,64
0.5,64.0,384,8,0,128.0,0.0,19.4,0.0,0.0,31.328,31.328,246.03707838058472,64,384,1,64
0.5,64.0,384,8,0,0.0,0.0,16.3,0.0,0.0,0.0,0.0,246.5375053882599,64,384,1,64
0.5,64.0,384,8,0,128.0,0.0,19.4,0.0,0.0,36.608,36.608,247.03519320487976,64,384,1,64
0.5,64.0,384,8,0,0.0,0.0,16.3,0.0,0.0,0.0,0.0,247.53485751152039,64,384,1,64
0.5,64.0,384,8,0,128.0,0.0,19.5,0.0,0.0,36.34,36.34,248.03711581230164,64,384,1,64
0.5,64.0,384,8,0,0.0,0.0,16.2,0.0,0.0,0.0,0.0,248.53803133964539,64,384,1,64
0.5,64.0,384,8,0,128.0,0.0,19.4,0.0,0.0,35.052,35.052,249.03616404533386,64,384,1,64
0.5,64.0,384,8,0,0.0,0.0,16.3,0.0,0.0,0.0,0.0,249.5404360294342,64,384,1,64
0.5,64.0,384,8,6,128.0,0.0,19.4,0.0,0.0,32.844,32.844,250.03686261177063,64,384,1,64
0.5,64.0,384,8,0,0.0,0.0,16.3,0.0,0.0,0.0,0.0,250.54146766662598,64,384,1,64
0.5,64.0,384,8,0,128.0,0.0,19.4,0.0,0.0,36.198,36.198,251.03649926185608,64,384,1,64
0.5,64.0,384,8,0,0.0,0.0,16.3,0.0,0.0,0.0,0.0,251.53662633895874,64,384,1,64
0.5,64.0,384,8,0,128.0,0.0,19.5,0.0,0.0,36.446,36.446,252.03594183921814,64,384,1,64
0.5,64.0,384,8,0,0.0,0.0,16.2,0.0,0.0,0.0,0.0,252.54239153862,64,384,1,64
0.5,64.0,384,8,0,128.0,0.0,19.4,0.0,0.0,35.672,35.672,253.0358910560608,64,384,1,64
0.5,64.0,384,8,0,0.0,0.0,16.3,0.0,0.0,0.0,0.0,253.5370123386383,64,384,1,64
0.5,64.0,384,8,0,128.0,0.0,19.4,0.0,0.0,35.874,35.874,254.03575825691223,64,384,1,64
0.5,64.0,384,8,0,0.0,0.0,16.3,0.0,0.0,0.0,0.0,254.5406973361969,64,384,1,64
0.5,64.0,384,8,0,127.49,0.0,19.5,0.0,0.0,31.313,31.313,255.03820514678955,64,384,1,64
0.5,64.0,384,8,0,0.0,0.0,16.2,0.0,0.0,0.0,0.0,255.54377603530884,64,384,1,64
0.5,64.0,384,8,7,128.0,0.0,19.4,0.0,0.0,35.202,35.202,256.03696370124817,64,384,1,64
0.5,64.0,384,8,0,0.0,0.0,16.6,0.0,0.0,0.0,0.0,256.5382719039917,64,384,1,64
0.5,64.0,384,8,0,128.0,0.0,19.7,0.0,0.0,36.454,36.454,257.0359437465668,64,384,1,64
0.5,64.0,384,8,0,0.0,0.0,16.5,0.0,0.0,0.0,0.0,257.54384779930115,64,384,1,64
0.5,64.0,384,8,0,128.0,0.0,19.9,0.0,0.0,35.22,35.22,258.03776144981384,64,384,1,64
0.5,64.0,384,8,0,0.0,0.0,16.5,0.0,0.0,0.0,0.0,258.5422122478485,64,384,1,64
0.5,64.0,384,8,0,128.0,0.0,19.7,0.0,0.0,31.706,31.706,259.0371603965759,64,384,1,64
0.5,64.0,384,8,0,0.0,0.0,16.3,0.0,0.0,0.0,0.0,259.54483699798584,64,384,1,64
0.5,64.0,384,8,0,128.0,0.0,19.5,0.0,0.0,35.93,35.93,260.0360767841339,64,384,1,64
0.5,64.0,384,8,0,0.0,0.0,16.3,0.0,0.0,0.0,0.0,260.5386893749237,64,384,1,64
0.5,64.0,384,8,0,128.0,0.0,19.4,0.0,0.0,35.856,35.856,261.0361454486847,64,384,1,64
0.5,64.0,384,8,0,0.0,0.0,16.3,0.0,0.0,0.0,0.0,261.5370695590973,64,384,1,64
10.01,64.0,384,8,8,63.96,0.7995,95.9,941.886,0.345,961.666,1903.898,271.5437066555023,64,384,1,64
0.5,64.0,384,8,0,128.0,0.0,19.4,0.0,0.0,36.592,36.592,272.04474902153015,64,384,1,64
0.5,64.0,384,8,0,0.0,0.0,16.3,0.0,0.0,0.0,0.0,272.54942321777344,64,384,1,64
0.5,64.0,384,8,0,128.0,0.0,19.4,0.0,0.0,35.88,35.88,273.0453054904938,64,384,1,64
0.5,64.0,384,8,0,0.0,0.0,16.3,0.0,0.0,0.0,0.0,273.5432074069977,64,384,1,64
0.5,64.0,384,8,2,128.0,0.0,19.4,0.0,0.0,35.696,35.696,274.0451693534851,64,384,1,64
0.5,64.0,384,8,0,0.0,0.0,16.2,0.0,0.0,0.0,0.0,274.5498716831207,64,384,1,64
0.5,64.0,384,8,0,128.0,0.0,19.5,0.0,0.0,35.568,35.568,275.0441687107086,64,384,1,64
0.5,64.0,384,8,0,0.0,0.0,16.3,0.0,0.0,0.0,0.0,275.5486283302307,64,384,1,64
0.5,64.0,384,8,0,128.0,0.0,19.4,0.0,0.0,36.412,36.412,276.04502630233765,64,384,1,64
0.5,64.0,384,8,0,0.0,0.0,16.2,0.0,0.0,0.0,0.0,276.5465769767761,64,384,1,64
0.5,64.0,384,8,0,128.0,0.0,19.6,0.0,0.0,35.416,35.416,277.0450918674469,64,384,1,64
0.5,64.0,384,8,0,0.0,0.0,16.6,0.0,0.0,0.0,0.0,277.54684925079346,64,384,1,64
0.5,64.0,384,8,0,128.0,0.0,19.7,0.0,0.0,35.762,35.762,278.0453088283539,64,384,1,64
0.5,64.0,384,8,0,0.0,0.0,16.6,0.0,0.0,0.0,0.0,278.5437343120575,64,384,1,64
0.5,64.0,384,8,0,128.0,0.0,19.9,0.0,0.0,36.012,36.012,279.04890513420105,64,384,1,64
0.5,64.0,384,8,0,0.0,0.0,16.6,0.0,0.0,0.0,0.0,279.54642486572266,64,384,1,64
0.5,64.0,384,8,3,128.0,0.0,19.6,0.0,0.0,32.92,32.92,280.0441560745239,64,384,1,64
0.5,64.0,384,8,0,0.0,0.0,16.3,0.0,0.0,0.0,0.0,280.5431504249573,64,384,1,64
0.5,64.0,384,8,0,128.0,0.0,19.4,0.0,0.0,32.84,32.84,281.04418301582336,64,384,1,64
0.5,64.0,384,8,0,0.0,0.0,16.3,0.0,0.0,0.0,0.0,281.5427579879761,64,384,1,64
0.5,64.0,384,8,0,128.0,0.0,19.3,0.0,0.0,36.17,36.17,282.0457854270935,64,384,1,64
0.5,64.0,384,8,0,0.0,0.0,16.3,0.0,0.0,0.0,0.0,282.5472893714905,64,384,1,64
0.5,64.0,384,8,0,128.0,0.0,19.4,0.0,0.0,36.048,36.048,283.0448839664459,64,384,1,64
0.5,64.0,384,8,0,0.0,0.0,16.1,0.0,0.0,0.0,0.0,283.5466935634613,64,384,1,64
0.5,64.0,384,8,0,128.0,0.0,19.4,0.0,0.0,36.922,36.922,284.0447793006897,64,384,1,64
0.5,64.0,384,8,0,0.0,0.0,16.3,0.0,0.0,0.0,0.0,284.5458753108978,64,384,1,64
0.5,64.0,384,8,0,128.0,0.0,19.3,0.0,0.0,34.458,34.458,285.0475609302521,64,384,1,64
0.5,64.0,384,8,0,0.0,0.0,16.2,0.0,0.0,0.0,0.0,285.5416169166565,64,384,1,64
0.5,64.0,384,8,4,128.0,0.0,19.4,0.0,0.0,36.036,36.036,286.0455548763275,64,384,1,64
0.5,64.0,384,8,0,0.0,0.0,16.3,0.0,0.0,0.0,0.0,286.54604482650757,64,384,1,64
0.5,64.0,384,8,0,128.0,0.0,19.5,0.0,0.0,32.898,32.898,287.04424357414246,64,384,1,64
0.5,64.0,384,8,0,0.0,0.0,16.2,0.0,0.0,0.0,0.0,287.54374623298645,64,384,1,64
0.5,64.0,384,8,0,128.0,0.0,19.3,0.0,0.0,36.82,36.82,288.04477763175964,64,384,1,64
0.5,64.0,384,8,0,0.0,0.0,16.2,0.0,0.0,0.0,0.0,288.54485177993774,64,384,1,64
0.5,64.0,384,8,0,128.0,0.0,19.6,0.0,0.0,32.806,32.806,289.045618057251,64,384,1,64
0.5,64.0,384,8,0,0.0,0.0,16.2,0.0,0.0,0.0,0.0,289.5480363368988,64,384,1,64
0.5,64.0,384,8,0,128.0,0.0,19.5,0.0,0.0,32.844,32.844,290.0446467399597,64,384,1,64
0.5,64.0,384,8,0,0.0,0.0,16.3,0.0,0.0,0.0,0.0,290.54608964920044,64,384,1,64
0.5,64.0,384,8,0,128.0,0.0,19.2,0.0,0.0,34.418,34.418,291.0445382595062,64,384,1,64
0.5,64.0,384,8,0,0.0,0.0,16.2,0.0,0.0,0.0,0.0,291.543732881546,64,384,1,64
0.5,64.0,384,8,5,128.0,0.0,19.5,0.0,0.0,32.812,32.812,292.04446482658386,64,384,1,64
0.5,64.0,384,8,0,0.0,0.0,16.3,0.0,0.0,0.0,0.0,292.55641627311707,64,384,1,64
0.5,64.0,384,8,0,128.0,0.0,19.5,0.0,0.0,36.292,36.292,293.04569149017334,64,384,1,64
0.5,64.0,384,8,0,0.0,0.0,16.2,0.0,0.0,0.0,0.0,293.54713439941406,64,384,1,64
0.5,64.0,384,8,0,0.0,0.0,16.4,0.0,0.0,0.0,0.0,294.0535018444061,64,384,1,64
0.5,64.0,384,8,0,128.0,0.0,19.4,0.0,0.0,32.826,32.826,294.544410943985,64,384,1,64
0.5,64.0,384,8,0,128.0,0.0,19.4,0.0,0.0,36.62,36.62,295.04535698890686,64,384,1,64
0.5,64.0,384,8,0,0.0,0.0,16.3,0.0,0.0,0.0,0.0,295.5428116321564,64,384,1,64
0.5,64.0,384,8,0,128.0,0.0,19.4,0.0,0.0,36.292,36.292,296.0451250076294,64,384,1,64
0.5,64.0,384,8,0,0.0,0.0,16.2,0.0,0.0,0.0,0.0,296.54544281959534,64,384,1,64
0.5,64.0,384,8,0,128.0,0.0,19.5,0.0,0.0,36.282,36.282,297.04532527923584,64,384,1,64
0.5,64.0,384,8,0,0.0,0.0,16.3,0.0,0.0,0.0,0.0,297.54347562789917,64,384,1,64
0.5,64.0,384,8,6,128.0,0.0,19.7,0.0,0.0,32.846,32.846,298.04452681541443,64,384,1,64
0.5,64.0,384,8,0,0.0,0.0,16.6,0.0,0.0,0.0,0.0,298.54704332351685,64,384,1,64
0.5,64.0,384,8,0,128.0,0.0,19.7,0.0,0.0,32.314,32.314,299.04438161849976,64,384,1,64
0.5,64.0,384,8,0,0.0,0.0,16.5,0.0,0.0,0.0,0.0,299.5432765483856,64,384,1,64
0.5,64.0,384,8,0,128.0,0.0,19.8,0.0,0.0,36.57,36.57,300.044960975647,64,384,1,64
0.5,64.0,384,8,0,0.0,0.0,16.4,0.0,0.0,0.0,0.0,300.5448405742645,64,384,1,64
0.5,64.0,384,8,0,128.0,0.0,19.4,0.0,0.0,36.24,36.24,301.0449116230011,64,384,1,64
0.5,64.0,384,8,0,0.0,0.0,16.3,0.0,0.0,0.0,0.0,301.541015625,64,384,1,64
0.5,64.0,384,8,0,128.0,0.0,19.3,0.0,0.0,32.55,32.55,302.0445489883423,64,384,1,64
0.5,64.0,384,8,0,0.0,0.0,16.3,0.0,0.0,0.0,0.0,302.54532957077026,64,384,1,64
0.5,64.0,384,8,0,128.0,0.0,19.3,0.0,0.0,36.418,36.418,303.0447909832001,64,384,1,64
0.5,64.0,384,8,0,0.0,0.0,16.2,0.0,0.0,0.0,0.0,303.5408651828766,64,384,1,64
0.5,64.0,384,8,0,0.0,0.0,16.3,0.0,0.0,0.0,0.0,304.0584623813629,64,384,1,64
0.5,64.0,384,8,7,128.0,0.0,19.3,0.0,0.0,33.328,33.328,304.54501247406006,64,384,1,64
0.5,64.0,384,8,0,128.0,0.0,19.5,0.0,0.0,36.088,36.088,305.04544854164124,64,384,1,64
0.5,64.0,384,8,0,0.0,0.0,16.2,0.0,0.0,0.0,0.0,305.5424642562866,64,384,1,64
0.5,64.0,384,8,0,128.0,0.0,19.3,0.0,0.0,34.74,34.74,306.0460431575775,64,384,1,64
0.5,64.0,384,8,0,0.0,0.0,16.3,0.0,0.0,0.0,0.0,306.54903388023376,64,384,1,64
0.5,64.0,384,8,0,128.0,0.0,19.5,0.0,0.0,34.198,34.198,307.0468192100525,64,384,1,64
0.5,64.0,384,8,0,0.0,0.0,16.2,0.0,0.0,0.0,0.0,307.5467321872711,64,384,1,64
0.5,64.0,384,8,0,128.0,0.0,19.6,0.0,0.0,33.698,33.698,308.041029214859,64,384,1,64
0.5,64.0,384,8,0,0.0,0.0,16.2,0.0,0.0,0.0,0.0,308.54379439353943,64,384,1,64
0.5,64.0,384,8,0,128.0,0.0,19.5,0.0,0.0,35.576,35.576,309.04627895355225,64,384,1,64
0.5,64.0,384,8,0,0.0,0.0,16.2,0.0,0.0,0.0,0.0,309.543749332428,64,384,1,64
9.84,64.0,384,8,8,16.25,0.8127,96.0,957.367,0.345,962.502,1920.214,319.39091396331787,64,384,1,64
0.5,64.0,384,8,0,0.0,0.0,16.6,0.0,0.0,0.0,0.0,319.88868975639343,64,384,1,64
0.5,64.0,384,8,0,0.0,0.0,16.7,0.0,0.0,0.0,0.0,320.39917731285095,64,384,1,64
