dt,Fs,HOP,BATCH,pend_peak,samp,inf,active,infer_ms_s,fill_ms_s,rx_ms_s,eproxy_ms_s,t_sec,fs_run,hop_run,batch_run,burst_run
0.5,64.0,384,8,0,48.0,0.0,17.6,0.0,0.0,10.016,10.016,0.355914831161499,64,384,1,8
0.5,64.0,384,8,0,64.0,0.0,17.9,0.0,0.0,15.75,15.75,0.8551719188690186,64,384,1,8
0.5,64.0,384,8,0,64.0,0.0,17.9,0.0,0.0,15.704,15.704,1.3545911312103271,64,384,1,8
0.5,64.0,384,8,0,64.0,0.0,18.0,0.0,0.0,14.982,14.982,1.8503925800323486,64,384,1,8
0.5,64.0,384,8,0,64.0,0.0,18.1,0.0,0.0,14.828,14.828,2.3549509048461914,64,384,1,8
0.5,64.0,384,8,0,64.0,0.0,17.9,0.0,0.0,15.006,15.006,2.85322904586792,64,384,1,8
0.5,64.0,384,8,0,64.0,0.0,18.0,0.0,0.0,15.1,15.1,3.354219913482666,64,384,1,8
0.5,64.0,384,8,0,64.0,0.0,18.1,0.0,0.0,15.068,15.068,3.8530819416046143,64,384,1,8
0.5,64.0,384,8,0,64.0,0.0,17.9,0.0,0.0,14.962,14.962,4.355740308761597,64,384,1,8
0.5,64.0,384,8,0,64.0,0.0,18.0,0.0,0.0,14.198,14.198,4.853886365890503,64,384,1,8
0.5,64.0,384,8,0,64.0,0.0,17.9,0.0,0.0,14.668,14.668,5.351024150848389,64,384,1,8
0.5,64.0,384,8,5,64.0,0.0,17.9,0.0,0.0,13.478,13.478,5.8530590534210205,64,384,1,8
0.5,64.0,384,8,0,64.0,0.0,17.9,0.0,0.0,13.66,13.66,6.35384726524353,64,384,1,8
0.5,64.0,384,8,0,64.0,0.0,17.8,0.0,0.0,12.728,12.728,6.852039098739624,64,384,1,8
0.5,64.0,384,8,0,64.0,0.0,17.9,0.0,0.0,13.864,13.864,7.3541107177734375,64,384,1,8
0.5,64.0,384,8,0,64.0,0.0,17.9,0.0,0.0,14.816,14.816,7.854036808013916,64,384,1,8
0.5,64.0,384,8,0,64.0,0.0,17.9,0.0,0.0,14.76,14.76,8.35243558883667,64,384,1,8
0.5,64.0,384,8,0,64.0,0.0,17.9,0.0,0.0,13.422,13.422,8.854072093963623,64,384,1,8
0.5,64.0,384,8,0,64.0,0.0,17.8,0.0,0.0,14.222,14.222,9.354383707046509,64,384,1,8
0.5,64.0,384,8,0,64.0,0.0,17.9,0.0,0.0,14.32,14.32,9.853948593139648,64,384,1,8
0.5,64.0,384,8,0,64.0,0.0,17.9,0.0,0.0,13.624,13.624,10.352311849594116,64,384,1,8
0.5,64.0,384,8,0,64.0,0.0,17.9,0.0,0.0,13.59,13.59,10.85290789604187,64,384,1,8
0.5,64.0,384,8,0,64.0,0.0,17.9,0.0,0.0,13.884,13.884,11.353338718414307,64,384,1,8
0.5,64.0,384,8,6,64.0,0.0,17.8,0.0,0.0,14.328,14.328,11.853363513946533,64,384,1,8
0.5,64.0,384,8,0,64.0,0.0,17.8,0.0,0.0,14.122,14.122,12.353660821914673,64,384,1,8
0.5,64.0,384,8,0,64.0,0.0,17.8,0.0,0.0,14.716,14.716,12.854590654373169,64,384,1,8
0.5,64.0,384,8,0,64.0,0.0,18.0,0.0,0.0,13.99,13.99,13.35517144203186,64,384,1,8
0.5,64.0,384,8,0,64.0,0.0,18.1,0.0,0.0,15.374,15.374,13.8536958694458,64,384,1,8
0.5,64.0,384,8,0,64.0,0.0,18.1,0.0,0.0,15.906,15.906,14.3537118434906,64,384,1,8
0.5,64.0,384,8,0,64.0,0.0,18.1,0.0,0.0,15.818,15.818,14.853212356567383,64,384,1,8
0.5,64.0,384,8,0,64.0,0.0,18.1,0.0,0.0,14.718,14.718,15.347198724746704,64,384,1,8
0.5,64.0,384,8,0,64.0,0.0,18.3,0.0,0.0,15.086,15.086,15.852051973342896,64,384,1,8
0.5,64.0,384,8,0,64.0,0.0,18.2,0.0,0.0,14.3,14.3,16.353453397750854,64,384,1,8
0.5,64.0,384,8,0,64.0,0.0,17.9,0.0,0.0,15.534,15.534,16.85386848449707,64,384,1,8
0.5,64.0,384,8,0,64.0,0.0,17.8,0.0,0.0,13.874,13.874,17.35393261909485,64,384,1,8
0.5,64.0,384,8,7,64.0,0.0,17.9,0.0,0.0,12.992,12.992,17.849578857421875,64,384,1,8
0.5,64.0,384,8,0,64.0,0.0,17.8,0.0,0.0,13.942,13.942,18.3471200466156,64,384,1,8
0.5,64.0,384,8,0,64.0,0.0,17.9,0.0,0.0,12.74,12.74,18.847233057022095,64,384,1,8
0.5,64.0,384,8,0,64.0,0.0,17.8,0.0,0.0,14.244,14.244,19.34777331352234,64,384,1,8
0.5,64.0,384,8,0,64.0,0.0,17.8,0.0,0.0,14.416,14.416,19.852550506591797,64,384,1,8
0.5,64.0,384,8,0,64.0,0.0,17.9,0.0,0.0,14.902,14.902,20.35349750518799,64,384,1,8
0.5,64.0,384,8,0,64.0,0.0,17.9,0.0,0.0,13.41,13.41,20.85330057144165,64,384,1,8
0.5,64.0,384,8,0,64.0,0.0,17.8,0.0,0.0,13.998,13.998,21.35494565963745,64,384,1,8
0.5,64.0,384,8,0,64.0,0.0,17.8,0.0,0.0,15.302,15.302,21.85285758972168,64,384,1,8
0.5,64.0,384,8,0,64.0,0.0,17.9,0.0,0.0,13.688,13.688,22.353513479232788,64,384,1,8
0.5,64.0,384,8,0,64.0,0.0,17.8,0.0,0.0,14.494,14.494,22.846246242523193,64,384,1,8
0.5,64.0,384,8,0,64.0,0.0,17.8,0.0,0.0,13.698,13.698,23.352771520614624,64,384,1,8
9.54,64.0,384,8,8,63.74,0.8387,99.7,988.278,0.362,1007.662,1996.302,32.88736939430237,64,384,1,8
0.5,64.0,384,8,0,63.87,0.0,17.8,0.0,0.0,13.008,13.008,33.385661602020264,64,384,1,8
0.5,64.0,384,8,0,64.0,0.0,18.1,0.0,0.0,13.722,13.722,33.88567781448364,64,384,1,8
0.5,64.0,384,8,0,79.84,0.0,18.4,0.0,0.0,19.054,19.054,34.38704037666321,64,384,1,8
0.5,64.0,384,8,0,63.87,0.0,18.1,0.0,0.0,14.202,14.202,34.89486002922058,64,384,1,8
0.5,64.0,384,8,2,64.0,0.0,18.2,0.0,0.0,13.53,13.53,35.39513564109802,64,384,1,8
0.5,64.0,384,8,0,64.0,0.0,18.1,0.0,0.0,14.092,14.092,35.886656284332275,64,384,1,8
0.5,64.0,384,8,0,64.0,0.0,18.0,0.0,0.0,15.852,15.852,36.39525651931763,64,384,1,8
0.5,64.0,384,8,0,64.0,0.0,17.8,0.0,0.0,15.782,15.782,36.8949031829834,64,384,1,8
0.5,64.0,384,8,0,64.0,0.0,17.9,0.0,0.0,14.006,14.006,37.39481854438782,64,384,1,8
0.5,64.0,384,8,0,64.0,0.0,17.8,0.0,0.0,15.556,15.556,37.89907097816467,64,384,1,8
0.5,64.0,384,8,0,64.0,0.0,17.8,0.0,0.0,15.11,15.11,38.387207984924316,64,384,1,8
0.5,64.0,384,8,0,64.0,0.0,17.8,0.0,0.0,15.174,15.174,38.88658547401428,64,384,1,8
0.5,64.0,384,8,0,64.0,0.0,17.8,0.0,0.0,16.192,16.192,39.39415001869202,64,384,1,8
0.5,64.0,384,8,0,64.0,0.0,17.8,0.0,0.0,13.968,13.968,39.893911361694336,64,384,1,8
0.5,64.0,384,8,0,64.0,0.0,17.8,0.0,0.0,16.068,16.068,40.39540648460388,64,384,1,8
0.5,64.0,384,8,0,64.0,0.0,17.9,0.0,0.0,14.262,14.262,40.895379304885864,64,384,1,8
0.5,64.0,384,8,3,64.0,0.0,17.8,0.0,0.0,14.588,14.588,41.394322633743286,64,384,1,8
0.5,64.0,384,8,0,64.0,0.0,17.9,0.0,0.0,13.366,13.366,41.894227266311646,64,384,1,8
0.5,64.0,384,8,0,64.0,0.0,17.8,0.0,0.0,14.756,14.756,42.39480662345886,64,384,1,8
0.5,64.0,384,8,0,64.0,0.0,17.9,0.0,0.0,13.044,13.044,42.894203901290894,64,384,1,8
0.5,64.0,384,8,0,64.0,0.0,17.8,0.0,0.0,14.886,14.886,43.39401364326477,64,384,1,8
0.5,64.0,384,8,0,64.0,0.0,17.8,0.0,0.0,13.062,13.062,43.89444637298584,64,384,1,8
0.5,64.0,384,8,0,64.0,0.0,17.8,0.0,0.0,14.676,14.676,44.39500403404236,64,384,1,8
0.5,64.0,384,8,0,64.0,0.0,17.8,0.0,0.0,14.638,14.638,44.89496898651123,64,384,1,8
0.5,64.0,384,8,0,50.0,0.0,17.6,0.0,0.0,11.46,11.46,45.38734841346741,64,384,1,8
0.5,64.0,384,8,0,78.0,0.0,18.2,0.0,0.0,17.906,17.906,45.895480155944824,64,384,1,8
0.5,64.0,384,8,0,64.0,0.0,17.9,0.0,0.0,13.266,13.266,46.395007610321045,64,384,1,8
0.5,64.0,384,8,0,63.87,0.0,17.8,0.0,0.0,14.768,14.768,46.8960747718811,64,384,1,8
0.5,64.0,384,8,4,64.0,0.0,17.9,0.0,0.0,14.814,14.814,47.387325048446655,64,384,1,8
0.5,64.0,384,8,0,64.0,0.0,17.8,0.0,0.0,13.066,13.066,47.89430570602417,64,384,1,8
0.5,64.0,384,8,0,64.0,0.0,18.0,0.0,0.0,15.004,15.004,48.39693284034729,64,384,1,8
0.5,64.0,384,8,0,64.0,0.0,17.8,0.0,0.0,16.344,16.344,48.89556431770325,64,384,1,8
0.5,64.0,384,8,0,64.0,0.0,17.8,0.0,0.0,15.408,15.408,49.39543914794922,64,384,1,8
0.5,64.0,384,8,0,62.0,0.0,17.8,0.0,0.0,13.504,13.504,49.88867235183716,64,384,1,8
0.5,64.0,384,8,0,66.0,0.0,18.0,0.0,0.0,15.626,15.626,50.395684242248535,64,384,1,8
0.5,64.0,384,8,0,64.0,0.0,17.9,0.0,0.0,13.788,13.788,50.89581561088562,64,384,1,8
0.5,64.0,384,8,0,64.0,0.0,17.9,0.0,0.0,13.674,13.674,51.39618539810181,64,384,1,8
0.5,64.0,384,8,0,62.0,0.0,17.9,0.0,0.0,14.246,14.246,51.88867473602295,64,384,1,8
0.5,64.0,384,8,0,66.0,0.0,17.9,0.0,0.0,14.834,14.834,52.3951575756073,64,384,1,8
0.5,64.0,384,8,0,64.0,0.0,17.8,0.0,0.0,14.442,14.442,52.89589977264404,64,384,1,8
0.5,64.0,384,8,5,64.0,0.0,18.0,0.0,0.0,14.804,14.804,53.3950092792511,64,384,1,8
0.5,64.0,384,8,0,64.0,0.0,18.0,0.0,0.0,15.638,15.638,53.89504623413086,64,384,1,8
0.5,64.0,384,8,0,64.0,0.0,18.1,0.0,0.0,14.802,14.802,54.39413905143738,64,384,1,8
0.5,64.0,384,8,0,58.0,0.0,18.1,0.0,0.0,13.726,13.726,54.8887939453125,64,384,1,8
0.5,64.0,384,8,0,70.0,0.0,18.2,0.0,0.0,15.62,15.62,55.394699811935425,64,384,1,8
0.5,64.0,384,8,0,64.0,0.0,18.2,0.0,0.0,14.872,14.872,55.89599347114563,64,384,1,8
0.5,64.0,384,8,0,64.0,0.0,18.2,0.0,0.0,13.186,13.186,56.394142389297485,64,384,1,8
0.5,64.0,384,8,0,64.0,0.0,18.0,0.0,0.0,14.474,14.474,56.89386987686157,64,384,1,8
0.5,64.0,384,8,0,60.0,0.0,17.8,0.0,0.0,14.314,14.314,57.38868832588196,64,384,1,8
0.5,64.0,384,8,0,68.0,0.0,18.0,0.0,0.0,15.32,15.32,57.89454174041748,64,384,1,8
0.5,64.0,384,8,0,60.0,0.0,17.8,0.0,0.0,13.928,13.928,58.388574838638306,64,384,1,8
0.5,64.0,384,8,0,68.0,0.0,17.9,0.0,0.0,16.786,16.786,58.895283699035645,64,384,1,8
0.5,64.0,384,8,6,64.0,0.0,17.8,0.0,0.0,15.766,15.766,59.39565682411194,64,384,1,8
0.5,64.0,384,8,0,56.0,0.0,17.7,0.0,0.0,13.74,13.74,59.889161825180054,64,384,1,8
0.5,64.0,384,8,0,72.0,0.0,18.1,0.0,0.0,17.396,17.396,60.39495825767517,64,384,1,8
0.5,64.0,384,8,0,64.0,0.0,17.9,0.0,0.0,15.512,15.512,60.88792610168457,64,384,1,8
0.5,64.0,384,8,0,64.0,0.0,17.8,0.0,0.0,15.742,15.742,61.39548301696777,64,384,1,8
0.5,64.0,384,8,0,64.0,0.0,17.9,0.0,0.0,15.416,15.416,61.89443302154541,64,384,1,8
0.5,64.0,384,8,0,64.0,0.0,17.9,0.0,0.0,15.284,15.284,62.38886308670044,64,384,1,8
0.5,64.0,384,8,0,64.0,0.0,17.9,0.0,0.0,15.404,15.404,62.895673990249634,64,384,1,8
0.5,64.0,384,8,0,64.0,0.0,17.8,0.0,0.0,14.48,14.48,63.393924713134766,64,384,1,8
0.5,64.0,384,8,0,64.0,0.0,17.9,0.0,0.0,14.812,14.812,63.89633083343506,64,384,1,8
0.5,64.0,384,8,0,64.0,0.0,17.9,0.0,0.0,14.306,14.306,64.39651370048523,64,384,1,8
0.5,64.0,384,8,0,48.0,0.0,17.7,0.0,0.0,10.768,10.768,64.88830757141113,64,384,1,8
0.5,64.0,384,8,7,80.0,0.0,18.2,0.0,0.0,19.028,19.028,65.39549970626831,64,384,1,8
0.5,64.0,384,8,0,64.0,0.0,18.0,0.0,0.0,14.124,14.124,65.89557147026062,64,384,1,8
0.5,64.0,384,8,0,56.0,0.0,17.7,0.0,0.0,13.114,13.114,66.39082598686218,64,384,1,8
0.5,64.0,384,8,0,68.0,0.0,17.8,0.0,0.0,15.518,15.518,66.88847303390503,64,384,1,8
0.5,64.0,384,8,0,68.0,0.0,18.0,0.0,0.0,14.74,14.74,67.39433264732361,64,384,1,8
0.5,64.0,384,8,0,64.0,0.0,17.8,0.0,0.0,15.05,15.05,67.89544749259949,64,384,1,8
0.5,64.0,384,8,0,64.0,0.0,17.8,0.0,0.0,14.106,14.106,68.39456343650818,64,384,1,8
0.5,64.0,384,8,0,64.0,0.0,17.9,0.0,0.0,13.68,13.68,68.89575123786926,64,384,1,8
0.5,64.0,384,8,0,64.0,0.0,17.9,0.0,0.0,14.288,14.288,69.39460062980652,64,384,1,8
0.5,64.0,384,8,0,64.0,0.0,17.8,0.0,0.0,14.21,14.21,69.89340996742249,64,384,1,8
0.5,64.0,384,8,0,60.0,0.0,17.8,0.0,0.0,14.122,14.122,70.38815832138062,64,384,1,8
0.5,64.0,384,8,0,68.0,0.0,17.9,0.0,0.0,14.594,14.594,70.89503049850464,64,384,1,8
10.0,64.0,384,8,8,63.98,0.7998,95.9,942.305,0.36,961.717,1904.382,80.89514207839966,64,384,1,8
0.5,64.0,384,8,0,64.0,0.0,17.8,0.0,0.0,13.706,13.706,81.39500188827515,64,384,1,8
0.5,64.0,384,8,0,64.0,0.0,17.9,0.0,0.0,13.902,13.902,81.89511156082153,64,384,1,8
0.5,64.0,384,8,0,64.0,0.0,17.8,0.0,0.0,13.504,13.504,82.39592361450195,64,384,1,8
0.5,64.0,384,8,0,64.0,0.0,17.9,0.0,0.0,14.626,14.626,82.89700675010681,64,384,1,8
0.5,64.0,384,8,2,64.0,0.0,17.9,0.0,0.0,13.484,13.484,83.39553141593933,64,384,1,8
0.5,64.0,384,8,0,64.0,0.0,17.8,0.0,0.0,15.38,15.38,83.89549732208252,64,384,1,8
0.5,64.0,384,8,0,64.0,0.0,17.9,0.0,0.0,15.358,15.358,84.3961193561554,64,384,1,8
0.5,64.0,384,8,0,64.0,0.0,17.9,0.0,0.0,15.71,15.71,84.89537835121155,64,384,1,8
0.5,64.0,384,8,0,64.0,0.0,17.8,0.0,0.0,14.626,14.626,85.39411997795105,64,384,1,8
0.5,64.0,384,8,0,64.0,0.0,17.9,0.0,0.0,13.034,13.034,85.8943498134613,64,384,1,8
0.5,64.0,384,8,0,64.0,0.0,17.8,0.0,0.0,14.122,14.122,86.39526152610779,64,384,1,8
0.5,64.0,384,8,0,64.0,0.0,17.9,0.0,0.0,14.948,14.948,86.89563155174255,64,384,1,8
0.5,64.0,384,8,0,64.0,0.0,17.9,0.0,0.0,13.158,13.158,87.39543056488037,64,384,1,8
0.5,64.0,384,8,0,64.0,0.0,17.9,0.0,0.0,15.256,15.256,87.8955500125885,64,384,1,8
0.5,64.0,384,8,0,64.0,0.0,17.9,0.0,0.0,13.654,13.654,88.39487767219543,64,384,1,8
0.5,64.0,384,8,0,64.0,0.0,17.7,0.0,0.0,13.968,13.968,88.89647221565247,64,384,1,8
0.5,64.0,384,8,3,64.0,0.0,17.8,0.0,0.0,15.75,15.75,89.39547061920166,64,384,1,8
0.5,64.0,384,8,0,64.0,0.0,18.0,0.0,0.0,14.654,14.654,89.89576077461243,64,384,1,8
0.5,64.0,384,8,0,64.0,0.0,17.8,0.0,0.0,14.774,14.774,90.39574790000916,64,384,1,8
0.5,64.0,384,8,0,64.0,0.0,17.9,0.0,0.0,15.256,15.256,90.8958625793457,64,384,1,8
0.5,64.0,384,8,0,64.0,0.0,17.9,0.0,0.0,13.376,13.376,91.39457321166992,64,384,1,8
0.5,64.0,384,8,0,64.0,0.0,17.9,0.0,0.0,12.788,12.788,91.89474415779114,64,384,1,8
0.5,64.0,384,8,0,48.0,0.0,17.5,0.0,0.0,12.056,12.056,92.3957130908966,64,384,1,8
0.5,64.0,384,8,0,80.0,0.0,18.2,0.0,0.0,16.604,16.604,92.89560294151306,64,384,1,8
0.5,64.0,384,8,0,64.0,0.0,17.8,0.0,0.0,14.068,14.068,93.39551615715027,64,384,1,8
0.5,64.0,384,8,0,64.0,0.0,17.8,0.0,0.0,13.446,13.446,93.89601254463196,64,384,1,8
0.5,64.0,384,8,0,64.0,0.0,17.8,0.0,0.0,13.71,13.71,94.39617395401001,64,384,1,8
0.5,64.0,384,8,0,64.0,0.0,18.1,0.0,0.0,14.566,14.566,94.8952968120575,64,384,1,8
0.5,64.0,384,8,4,64.0,0.0,18.2,0.0,0.0,14.388,14.388,95.39575743675232,64,384,1,8
0.5,64.0,384,8,0,64.0,0.0,18.2,0.0,0.0,13.35,13.35,95.8946681022644,64,384,1,8
0.5,64.0,384,8,0,64.0,0.0,18.0,0.0,0.0,14.186,14.186,96.39477205276489,64,384,1,8
0.5,64.0,384,8,0,64.0,0.0,18.2,0.0,0.0,14.844,14.844,96.89578652381897,64,384,1,8
0.5,64.0,384,8,0,64.0,0.0,18.1,0.0,0.0,15.726,15.726,97.3947651386261,64,384,1,8
0.5,64.0,384,8,0,64.0,0.0,17.9,0.0,0.0,14.596,14.596,97.89605164527893,64,384,1,8
0.5,64.0,384,8,0,64.0,0.0,17.9,0.0,0.0,14.528,14.528,98.39605689048767,64,384,1,8
0.5,64.0,384,8,0,64.0,0.0,17.9,0.0,0.0,14.41,14.41,98.89541983604431,64,384,1,8
0.5,64.0,384,8,0,64.0,0.0,17.8,0.0,0.0,14.486,14.486,99.39601755142212,64,384,1,8
0.5,64.0,384,8,0,64.0,0.0,17.8,0.0,0.0,14.408,14.408,99.89522409439087,64,384,1,8
0.5,64.0,384,8,0,64.0,0.0,17.8,0.0,0.0,16.402,16.402,100.39582896232605,64,384,1,8
0.5,64.0,384,8,0,64.0,0.0,17.9,0.0,0.0,14.898,14.898,100.89572954177856,64,384,1,8
0.5,64.0,384,8,5,64.0,0.0,17.9,0.0,0.0,16.344,16.344,101.39555311203003,64,384,1,8
0.5,64.0,384,8,0,64.0,0.0,17.9,0.0,0.0,13.658,13.658,101.89595460891724,64,384,1,8
0.5,64.0,384,8,0,64.0,0.0,17.9,0.0,0.0,15.056,15.056,102.39559698104858,64,384,1,8
0.5,64.0,384,8,0,64.0,0.0,18.0,0.0,0.0,14.252,14.252,102.8955545425415,64,384,1,8
0.5,64.0,384,8,0,64.0,0.0,17.9,0.0,0.0,13.06,13.06,103.39573001861572,64,384,1,8
0.5,64.0,384,8,0,64.0,0.0,17.8,0.0,0.0,15.544,15.544,103.89576077461243,64,384,1,8
0.5,64.0,384,8,0,64.0,0.0,17.9,0.0,0.0,14.062,14.062,104.39424061775208,64,384,1,8
0.5,64.0,384,8,0,64.0,0.0,17.9,0.0,0.0,13.852,13.852,104.89434742927551,64,384,1,8
0.5,64.0,384,8,0,64.0,0.0,17.7,0.0,0.0,13.982,13.982,105.39528226852417,64,384,1,8
0.5,64.0,384,8,0,64.0,0.0,17.8,0.0,0.0,13.308,13.308,105.89522767066956,64,384,1,8
0.5,64.0,384,8,0,64.0,0.0,17.9,0.0,0.0,14.92,14.92,106.3960952758789,64,384,1,8
0.5,64.0,384,8,0,64.0,0.0,17.9,0.0,0.0,15.66,15.66,106.89723086357117,64,384,1,8
0.5,64.0,384,8,0,58.0,0.0,17.9,0.0,0.0,13.2,13.2,107.39052939414978,64,384,1,8
0.5,64.0,384,8,6,62.0,0.0,17.9,0.0,0.0,14.97,14.97,107.89053750038147,64,384,1,8
0.5,64.0,384,8,0,64.0,0.0,18.1,0.0,0.0,13.878,13.878,108.39086294174194,64,384,1,8
0.5,64.0,384,8,0,60.0,0.0,18.0,0.0,0.0,13.724,13.724,108.89401125907898,64,384,1,8
0.5,64.0,384,8,0,72.0,0.0,18.3,0.0,0.0,16.808,16.808,109.39008593559265,64,384,1,8
0.5,64.0,384,8,0,68.0,0.0,17.9,0.0,0.0,16.77,16.77,109.89610481262207,64,384,1,8
0.5,64.0,384,8,0,56.0,0.0,17.8,0.0,0.0,13.166,13.166,110.39107465744019,64,384,1,8
0.5,64.0,384,8,0,72.0,0.0,18.2,0.0,0.0,16.412,16.412,110.89646291732788,64,384,1,8
0.5,64.0,384,8,0,64.0,0.0,17.8,0.0,0.0,16.2,16.2,111.39646315574646,64,384,1,8
0.5,64.0,384,8,0,64.0,0.0,17.8,0.0,0.0,15.21,15.21,111.896719455719,64,384,1,8
0.5,64.0,384,8,0,56.0,0.0,17.9,0.0,0.0,13.314,13.314,112.39108300209045,64,384,1,8
0.5,64.0,384,8,0,64.0,0.0,18.2,0.0,0.0,13.424,13.424,112.89180421829224,64,384,1,8
0.5,64.0,384,8,0,62.0,0.0,17.9,0.0,0.0,13.896,13.896,113.39336800575256,64,384,1,8
0.5,64.0,384,8,7,70.0,0.0,18.2,0.0,0.0,15.87,15.87,113.88963222503662,64,384,1,8
0.5,64.0,384,8,0,60.0,0.0,17.9,0.0,0.0,13.87,13.87,114.39043474197388,64,384,1,8
0.5,64.0,384,8,0,72.0,0.0,18.2,0.0,0.0,16.232,16.232,114.88916802406311,64,384,1,8
0.5,64.0,384,8,0,64.0,0.0,18.2,0.0,0.0,15.53,15.53,115.3960816860199,64,384,1,8
0.5,64.0,384,8,0,64.0,0.0,18.4,0.0,0.0,14.556,14.556,115.89578104019165,64,384,1,8
0.5,64.0,384,8,0,64.0,0.0,18.3,0.0,0.0,15.298,15.298,116.39637207984924,64,384,1,8
0.5,64.0,384,8,0,56.0,0.0,18.2,0.0,0.0,12.54,12.54,116.89013314247131,64,384,1,8
0.5,64.0,384,8,0,70.0,0.0,18.5,0.0,0.0,15.974,15.974,117.38939070701599,64,384,1,8
0.5,64.0,384,8,0,58.0,0.0,18.3,0.0,0.0,13.23,13.23,117.89022397994995,64,384,1,8
0.5,64.0,384,8,0,72.0,0.0,18.0,0.0,0.0,17.586,17.586,118.39614987373352,64,384,1,8
0.5,64.0,384,8,0,56.0,0.0,17.9,0.0,0.0,13.29,13.29,118.89022421836853,64,384,1,8
0.5,64.0,384,8,0,62.0,0.0,18.0,0.0,0.0,13.946,13.946,119.39150428771973,64,384,1,8
9.51,64.0,384,8,8,64.46,0.8412,100.0,991.268,0.358,1010.84,2002.465,128.90107369422913,64,384,1,8
0.5,64.0,384,8,0,64.0,0.0,18.2,0.0,0.0,14.35,14.35,129.40731072425842,64,384,1,8
0.5,64.0,384,8,0,64.0,0.0,18.0,0.0,0.0,15.21,15.21,129.90562224388123,64,384,1,8
0.5,64.0,384,8,0,64.0,0.0,18.2,0.0,0.0,14.148,14.148,130.40195083618164,64,384,1,8
0.5,64.0,384,8,0,64.0,0.0,18.2,0.0,0.0,14.088,14.088,130.89986896514893,64,384,1,8
0.5,64.0,384,8,2,64.0,0.0,18.2,0.0,0.0,13.826,13.826,131.40659046173096,64,384,1,8
0.5,64.0,384,8,0,64.0,0.0,18.2,0.0,0.0,13.914,13.914,131.89965176582336,64,384,1,8
0.5,64.0,384,8,0,64.0,0.0,18.1,0.0,0.0,15.06,15.06,132.3995795249939,64,384,1,8
0.5,64.0,384,8,0,64.0,0.0,17.9,0.0,0.0,15.58,15.58,132.9063422679901,64,384,1,8
0.5,64.0,384,8,0,64.0,0.0,18.2,0.0,0.0,14.412,14.412,133.4020791053772,64,384,1,8
0.5,64.0,384,8,0,64.0,0.0,18.1,0.0,0.0,14.618,14.618,133.90697598457336,64,384,1,8
0.5,64.0,384,8,0,64.0,0.0,17.9,0.0,0.0,15.374,15.374,134.40376496315002,64,384,1,8
0.5,64.0,384,8,0,64.0,0.0,17.8,0.0,0.0,16.014,16.014,134.9044189453125,64,384,1,8
0.5,64.0,384,8,0,64.0,0.0,18.0,0.0,0.0,15.418,15.418,135.40658712387085,64,384,1,8
0.5,64.0,384,8,0,64.0,0.0,18.3,0.0,0.0,15.338,15.338,135.9059076309204,64,384,1,8
0.5,64.0,384,8,0,64.0,0.0,18.3,0.0,0.0,14.88,14.88,136.40573573112488,64,384,1,8
0.5,64.0,384,8,0,64.0,0.0,18.1,0.0,0.0,14.04,14.04,136.90423464775085,64,384,1,8
0.5,64.0,384,8,3,64.0,0.0,18.2,0.0,0.0,13.41,13.41,137.4055655002594,64,384,1,8
0.5,64.0,384,8,0,64.0,0.0,18.1,0.0,0.0,13.978,13.978,137.9050829410553,64,384,1,8
0.5,64.0,384,8,0,64.0,0.0,18.0,0.0,0.0,14.344,14.344,138.4053237438202,64,384,1,8
0.5,64.0,384,8,0,64.0,0.0,17.8,0.0,0.0,13.728,13.728,138.90468883514404,64,384,1,8
0.5,64.0,384,8,0,64.0,0.0,17.8,0.0,0.0,15.152,15.152,139.40396213531494,64,384,1,8
0.5,64.0,384,8,0,64.0,0.0,17.9,0.0,0.0,13.296,13.296,139.90501236915588,64,384,1,8
0.5,64.0,384,8,0,64.0,0.0,18.0,0.0,0.0,15.158,15.158,140.40472292900085,64,384,1,8
0.5,64.0,384,8,0,64.0,0.0,17.7,0.0,0.0,14.186,14.186,140.90377283096313,64,384,1,8
0.5,64.0,384,8,0,64.0,0.0,17.9,0.0,0.0,15.266,15.266,141.40537571907043,64,384,1,8
0.5,64.0,384,8,0,64.0,0.0,17.9,0.0,0.0,15.322,15.322,141.90549659729004,64,384,1,8
0.5,64.0,384,8,0,64.0,0.0,17.9,0.0,0.0,13.77,13.77,142.39948225021362,64,384,1,8
0.5,64.0,384,8,0,64.0,0.0,17.8,0.0,0.0,15.258,15.258,142.90499329566956,64,384,1,8
0.5,64.0,384,8,4,64.0,0.0,17.9,0.0,0.0,14.156,14.156,143.40435481071472,64,384,1,8
0.5,64.0,384,8,0,64.0,0.0,17.9,0.0,0.0,14.022,14.022,143.90569472312927,64,384,1,8
0.5,64.0,384,8,0,64.0,0.0,17.9,0.0,0.0,12.812,12.812,144.40418601036072,64,384,1,8
0.5,64.0,384,8,0,64.0,0.0,17.9,0.0,0.0,14.922,14.922,144.9053237438202,64,384,1,8
0.5,64.0,384,8,0,64.0,0.0,18.0,0.0,0.0,13.8,13.8,145.40601801872253,64,384,1,8
0.5,64.0,384,8,0,64.0,0.0,17.8,0.0,0.0,14.004,14.004,145.9043493270874,64,384,1,8
0.5,64.0,384,8,0,64.0,0.0,17.8,0.0,0.0,14.57,14.57,146.40448927879333,64,384,1,8
0.5,64.0,384,8,0,64.0,0.0,17.9,0.0,0.0,13.174,13.174,146.9041304588318,64,384,1,8
0.5,64.0,384,8,0,64.0,0.0,17.8,0.0,0.0,16.194,16.194,147.40559244155884,64,384,1,8
0.5,64.0,384,8,0,64.0,0.0,17.8,0.0,0.0,14.464,14.464,147.90364837646484,64,384,1,8
0.5,64.0,384,8,0,64.0,0.0,17.9,0.0,0.0,14.936,14.936,148.40563869476318,64,384,1,8
0.5,64.0,384,8,0,64.0,0.0,17.9,0.0,0.0,14.968,14.968,148.90461254119873,64,384,1,8
0.5,64.0,384,8,5,64.0,0.0,17.8,0.0,0.0,14.646,14.646,149.4051296710968,64,384,1,8
0.5,64.0,384,8,0,64.0,0.0,17.8,0.0,0.0,14.59,14.59,149.90448808670044,64,384,1,8
0.5,64.0,384,8,0,64.0,0.0,17.9,0.0,0.0,15.198,15.198,150.404883146286,64,384,1,8
0.5,64.0,384,8,0,64.0,0.0,17.7,0.0,0.0,14.158,14.158,150.9060561656952,64,384,1,8
0.5,64.0,384,8,0,64.0,0.0,18.0,0.0,0.0,14.362,14.362,151.40675735473633,64,384,1,8
0.5,64.0,384,8,0,64.0,0.0,18.0,0.0,0.0,15.22,15.22,151.89899039268494,64,384,1,8
0.5,64.0,384,8,0,64.0,0.0,17.8,0.0,0.0,13.942,13.942,152.40490007400513,64,384,1,8
0.5,64.0,384,8,0,64.0,0.0,17.9,0.0,0.0,13.824,13.824,152.90624833106995,64,384,1,8
0.5,64.0,384,8,0,64.0,0.0,17.9,0.0,0.0,14.416,14.416,153.4045307636261,64,384,1,8
0.5,64.0,384,8,0,64.0,0.0,17.8,0.0,0.0,15.01,15.01,153.9043891429901,64,384,1,8
0.5,64.0,384,8,0,64.0,0.0,17.9,0.0,0.0,14.912,14.912,154.3989863395691,64,384,1,8
0.5,64.0,384,8,0,64.0,0.0,17.9,0.0,0.0,15.174,15.174,154.89767932891846,64,384,1,8
0.5,64.0,384,8,6,64.0,0.0,17.9,0.0,0.0,14.084,14.084,155.40375995635986,64,384,1,8
0.5,64.0,384,8,0,64.0,0.0,17.9,0.0,0.0,13.658,13.658,155.90447068214417,64,384,1,8
0.5,64.0,384,8,0,64.0,0.0,18.1,0.0,0.0,15.6,15.6,156.4046070575714,64,384,1,8
0.5,64.0,384,8,0,64.0,0.0,18.2,0.0,0.0,15.256,15.256,156.89875531196594,64,384,1,8
0.5,64.0,384,8,0,64.0,0.0,18.2,0.0,0.0,16.156,16.156,157.40485453605652,64,384,1,8
0.5,64.0,384,8,0,64.0,0.0,18.3,0.0,0.0,15.252,15.252,157.90602087974548,64,384,1,8
0.5,64.0,384,8,0,64.0,0.0,18.2,0.0,0.0,14.994,14.994,158.39813470840454,64,384,1,8
0.5,64.0,384,8,0,64.0,0.0,18.1,0.0,0.0,14.39,14.39,158.90443682670593,64,384,1,8
0.5,64.0,384,8,0,64.0,0.0,17.8,0.0,0.0,16.398,16.398,159.39832544326782,64,384,1,8
0.5,64.0,384,8,0,64.0,0.0,18.0,0.0,0.0,15.25,15.25,159.89803647994995,64,384,1,8
0.5,64.0,384,8,0,64.0,0.0,17.9,0.0,0.0,14.99,14.99,160.40578031539917,64,384,1,8
0.5,64.0,384,8,0,64.0,0.0,17.9,0.0,0.0,13.998,13.998,160.89826130867004,64,384,1,8
0.5,64.0,384,8,7,64.0,0.0,17.9,0.0,0.0,14.724,14.724,161.39890956878662,64,384,1,8
0.5,64.0,384,8,0,64.0,0.0,17.9,0.0,0.0,15.854,15.854,161.90490865707397,64,384,1,8
0.5,64.0,384,8,0,64.0,0.0,17.9,0.0,0.0,14.606,14.606,162.40511393547058,64,384,1,8
0.5,64.0,384,8,0,64.0,0.0,17.9,0.0,0.0,14.596,14.596,162.90401911735535,64,384,1,8
0.5,64.0,384,8,0,64.0,0.0,17.9,0.0,0.0,15.776,15.776,163.39811611175537,64,384,1,8
0.5,64.0,384,8,0,64.0,0.0,17.9,0.0,0.0,14.458,14.458,163.89806747436523,64,384,1,8
0.5,64.0,384,8,0,64.0,0.0,18.0,0.0,0.0,14.508,14.508,164.40452098846436,64,384,1,8
0.5,64.0,384,8,0,64.0,0.0,17.9,0.0,0.0,14.056,14.056,164.89771962165833,64,384,1,8
0.5,64.0,384,8,0,64.0,0.0,17.9,0.0,0.0,14.824,14.824,165.40441179275513,64,384,1,8
0.5,64.0,384,8,0,64.0,0.0,18.0,0.0,0.0,15.486,15.486,165.89826798439026,64,384,1,8
0.5,64.0,384,8,0,64.0,0.0,18.0,0.0,0.0,14.876,14.876,166.3978192806244,64,384,1,8
0.5,64.0,384,8,0,64.0,0.0,17.9,0.0,0.0,14.702,14.702,166.8971724510193,64,384,1,8
9.99,64.0,384,8,8,64.04,0.8006,96.0,943.346,0.343,962.574,1906.262,176.89619779586792,64,384,1,8
0.5,64.0,384,8,0,48.0,0.0,17.8,0.0,0.0,11.11,11.11,177.40790796279907,64,384,1,8
0.5,64.0,384,8,0,80.0,0.0,18.6,0.0,0.0,17.344,17.344,177.8953857421875,64,384,1,8
0.5,64.0,384,8,0,63.87,0.0,18.0,0.0,0.0,14.591,14.591,178.38974404335022,64,384,1,8
0.5,64.0,384,8,0,64.0,0.0,18.0,0.0,0.0,13.95,13.95,178.8982756137848,64,384,1,8
0.5,64.0,384,8,2,64.0,0.0,18.3,0.0,0.0,14.358,14.358,179.39891409873962,64,384,1,8
0.5,64.0,384,8,0,64.0,0.0,17.9,0.0,0.0,15.016,15.016,179.89751172065735,64,384,1,8
0.5,64.0,384,8,0,64.0,0.0,17.9,0.0,0.0,14.584,14.584,180.39798736572266,64,384,1,8
0.5,64.0,384,8,0,60.0,0.0,17.8,0.0,0.0,14.222,14.222,180.89110946655273,64,384,1,8
0.5,64.0,384,8,0,68.0,0.0,17.9,0.0,0.0,15.1,15.1,181.39076137542725,64,384,1,8
0.5,64.0,384,8,0,64.0,0.0,17.8,0.0,0.0,15.066,15.066,181.89768433570862,64,384,1,8
0.5,64.0,384,8,0,64.0,0.0,17.9,0.0,0.0,14.984,14.984,182.3986358642578,64,384,1,8
0.5,64.0,384,8,0,64.0,0.0,17.7,0.0,0.0,15.548,15.548,182.89676761627197,64,384,1,8
0.5,64.0,384,8,0,64.0,0.0,17.9,0.0,0.0,15.328,15.328,183.39040970802307,64,384,1,8
0.5,64.0,384,8,0,64.0,0.0,17.7,0.0,0.0,15.386,15.386,183.89646458625793,64,384,1,8
0.5,64.0,384,8,0,64.0,0.0,17.8,0.0,0.0,12.632,12.632,184.39639043807983,64,384,1,8
0.5,64.0,384,8,0,64.0,0.0,17.9,0.0,0.0,14.216,14.216,184.8971402645111,64,384,1,8
0.5,64.0,384,8,3,64.0,0.0,17.9,0.0,0.0,14.81,14.81,185.3975794315338,64,384,1,8
0.5,64.0,384,8,0,64.0,0.0,17.9,0.0,0.0,14.706,14.706,185.89770483970642,64,384,1,8
0.5,64.0,384,8,0,48.0,0.0,17.6,0.0,0.0,10.52,10.52,186.3925335407257,64,384,1,8
0.5,64.0,384,8,0,80.0,0.0,18.1,0.0,0.0,18.388,18.388,186.89843583106995,64,384,1,8
0.5,64.0,384,8,0,64.0,0.0,17.9,0.0,0.0,15.254,15.254,187.3981430530548,64,384,1,8
0.5,64.0,384,8,0,64.0,0.0,17.8,0.0,0.0,13.35,13.35,187.89673852920532,64,384,1,8
0.5,64.0,384,8,0,64.0,0.0,17.9,0.0,0.0,15.516,15.516,188.39781880378723,64,384,1,8
0.5,64.0,384,8,0,64.0,0.0,17.9,0.0,0.0,13.982,13.982,188.89699244499207,64,384,1,8
0.5,64.0,384,8,0,64.0,0.0,17.9,0.0,0.0,14.952,14.952,189.390634059906,64,384,1,8
0.5,64.0,384,8,0,64.0,0.0,17.8,0.0,0.0,15.516,15.516,189.89841079711914,64,384,1,8
0.5,64.0,384,8,0,64.0,0.0,17.9,0.0,0.0,14.98,14.98,190.3967523574829,64,384,1,8
0.5,64.0,384,8,0,60.0,0.0,17.7,0.0,0.0,14.43,14.43,190.89114093780518,64,384,1,8
0.5,64.0,384,8,4,68.0,0.0,17.9,0.0,0.0,16.888,16.888,191.3909194469452,64,384,1,8
0.5,64.0,384,8,0,64.0,0.0,17.8,0.0,0.0,14.562,14.562,191.89775800704956,64,384,1,8
0.5,64.0,384,8,0,64.0,0.0,17.9,0.0,0.0,14.556,14.556,192.397305727005,64,384,1,8
0.5,64.0,384,8,0,64.0,0.0,17.9,0.0,0.0,15.394,15.394,192.89673972129822,64,384,1,8
0.5,64.0,384,8,0,64.0,0.0,17.9,0.0,0.0,14.066,14.066,193.39054918289185,64,384,1,8
0.5,64.0,384,8,0,60.0,0.0,17.8,0.0,0.0,14.82,14.82,193.89043712615967,64,384,1,8
0.5,64.0,384,8,0,68.0,0.0,17.8,0.0,0.0,15.512,15.512,194.39734315872192,64,384,1,8
0.5,64.0,384,8,0,64.0,0.0,17.8,0.0,0.0,13.682,13.682,194.8970010280609,64,384,1,8
0.5,64.0,384,8,0,64.0,0.0,17.9,0.0,0.0,15.27,15.27,195.3906717300415,64,384,1,8
0.5,64.0,384,8,0,64.0,0.0,17.8,0.0,0.0,14.716,14.716,195.89744210243225,64,384,1,8
0.5,64.0,384,8,0,64.0,0.0,17.9,0.0,0.0,13.976,13.976,196.39864706993103,64,384,1,8
0.5,64.0,384,8,0,64.0,0.0,18.0,0.0,0.0,13.54,13.54,196.896959066391,64,384,1,8
0.5,64.0,384,8,5,64.0,0.0,18.1,0.0,0.0,14.778,14.778,197.39829540252686,64,384,1,8
0.5,64.0,384,8,0,64.0,0.0,18.2,0.0,0.0,16.096,16.096,197.89923977851868,64,384,1,8
0.5,64.0,384,8,0,64.0,0.0,18.1,0.0,0.0,14.576,14.576,198.3972864151001,64,384,1,8
0.5,64.0,384,8,0,64.0,0.0,18.3,0.0,0.0,13.36,13.36,198.89021062850952,64,384,1,8
0.5,64.0,384,8,0,58.0,0.0,18.1,0.0,0.0,13.914,13.914,199.39218544960022,64,384,1,8
0.5,64.0,384,8,0,70.0,0.0,18.2,0.0,0.0,17.43,17.43,199.89809274673462,64,384,1,8
0.5,64.0,384,8,0,64.0,0.0,17.7,0.0,0.0,14.738,14.738,200.39715027809143,64,384,1,8
0.5,64.0,384,8,0,64.0,0.0,17.8,0.0,0.0,14.436,14.436,200.89818143844604,64,384,1,8
0.5,64.0,384,8,0,64.0,0.0,18.0,0.0,0.0,13.872,13.872,201.39713716506958,64,384,1,8
0.5,64.0,384,8,0,64.0,0.0,17.7,0.0,0.0,16.078,16.078,201.89838004112244,64,384,1,8
0.5,64.0,384,8,0,64.0,0.0,17.9,0.0,0.0,15.806,15.806,202.39863777160645,64,384,1,8
0.5,64.0,384,8,0,64.0,0.0,17.9,0.0,0.0,14.652,14.652,202.89694094657898,64,384,1,8
0.5,64.0,384,8,6,64.0,0.0,18.0,0.0,0.0,15.366,15.366,203.39785933494568,64,384,1,8
0.5,64.0,384,8,0,61.88,0.0,17.9,0.0,0.0,15.132,15.132,203.8922336101532,64,384,1,8
0.5,64.0,384,8,0,66.0,0.0,18.0,0.0,0.0,15.764,15.764,204.39215660095215,64,384,1,8
0.5,64.0,384,8,0,62.0,0.0,17.9,0.0,0.0,15.536,15.536,204.89216995239258,64,384,1,8
0.5,64.0,384,8,0,66.0,0.0,18.0,0.0,0.0,15.66,15.66,205.39739060401917,64,384,1,8
0.5,64.0,384,8,0,62.0,0.0,17.8,0.0,0.0,15.288,15.288,205.8925507068634,64,384,1,8
0.5,64.0,384,8,0,66.0,0.0,17.9,0.0,0.0,15.458,15.458,206.3964409828186,64,384,1,8
0.5,64.0,384,8,0,64.0,0.0,17.9,0.0,0.0,15.38,15.38,206.8977541923523,64,384,1,8
0.5,64.0,384,8,0,64.0,0.0,17.9,0.0,0.0,14.716,14.716,207.3976969718933,64,384,1,8
0.5,64.0,384,8,0,64.0,0.0,18.0,0.0,0.0,14.042,14.042,207.8979561328888,64,384,1,8
0.5,64.0,384,8,0,64.0,0.0,17.9,0.0,0.0,13.61,13.61,208.39673972129822,64,384,1,8
0.5,64.0,384,8,0,64.0,0.0,17.9,0.0,0.0,14.628,14.628,208.8971962928772,64,384,1,8
0.5,64.0,384,8,7,64.0,0.0,17.9,0.0,0.0,15.114,15.114,209.39907956123352,64,384,1,8
0.5,64.0,384,8,0,64.0,0.0,17.8,0.0,0.0,13.838,13.838,209.89984726905823,64,384,1,8
0.5,64.0,384,8,0,60.0,0.0,17.8,0.0,0.0,13.846,13.846,210.39212560653687,64,384,1,8
0.5,64.0,384,8,0,68.0,0.0,18.0,0.0,0.0,15.688,15.688,210.89710688591003,64,384,1,8
0.5,64.0,384,8,0,64.0,0.0,17.9,0.0,0.0,14.77,14.77,211.39076375961304,64,384,1,8
0.5,64.0,384,8,0,64.0,0.0,18.0,0.0,0.0,15.108,15.108,211.89879488945007,64,384,1,8
0.5,64.0,384,8,0,64.0,0.0,17.9,0.0,0.0,14.574,14.574,212.3976333141327,64,384,1,8
0.5,64.0,384,8,0,62.0,0.0,18.0,0.0,0.0,13.74,13.74,212.89195942878723,64,384,1,8
0.5,64.0,384,8,0,66.0,0.0,18.0,0.0,0.0,15.178,15.178,213.39831233024597,64,384,1,8
0.5,64.0,384,8,0,64.0,0.0,17.9,0.0,0.0,15.202,15.202,213.8986053466797,64,384,1,8
0.5,64.0,384,8,0,64.0,0.0,18.0,0.0,0.0,13.978,13.978,214.3965883255005,64,384,1,8
0.5,64.0,384,8,0,64.0,0.0,17.9,0.0,0.0,15.4,15.4,214.89811396598816,64,384,1,8
0.5,64.0,384,8,0,58.0,0.0,17.7,0.0,0.0,12.352,12.352,215.39271903038025,64,384,1,8
9.51,64.0,384,8,8,64.25,0.8412,100.0,991.177,0.357,1010.875,2002.41,224.90327882766724,64,384,1,8
0.5,64.0,384,8,0,64.0,0.0,17.9,0.0,0.0,14.592,14.592,225.40676927566528,64,384,1,8
0.5,64.0,384,8,0,64.0,0.0,17.9,0.0,0.0,15.594,15.594,225.90569233894348,64,384,1,8
0.5,64.0,384,8,0,64.0,0.0,17.9,0.0,0.0,15.22,15.22,226.40720391273499,64,384,1,8
0.5,64.0,384,8,0,64.0,0.0,18.3,0.0,0.0,14.41,14.41,226.908282995224,64,384,1,8
0.5,64.0,384,8,2,64.0,0.0,18.1,0.0,0.0,14.846,14.846,227.40755939483643,64,384,1,8
0.5,64.0,384,8,0,64.0,0.0,17.9,0.0,0.0,14.668,14.668,227.90752172470093,64,384,1,8
0.5,64.0,384,8,0,64.0,0.0,17.9,0.0,0.0,15.158,15.158,228.40870356559753,64,384,1,8
0.5,64.0,384,8,0,64.0,0.0,18.1,0.0,0.0,14.606,14.606,228.90886616706848,64,384,1,8
0.5,64.0,384,8,0,64.0,0.0,17.9,0.0,0.0,15.344,15.344,229.40034651756287,64,384,1,8
0.5,64.0,384,8,0,64.0,0.0,17.9,0.0,0.0,14.924,14.924,229.9013431072235,64,384,1,8
0.5,64.0,384,8,0,64.0,0.0,18.2,0.0,0.0,13.722,13.722,230.4036145210266,64,384,1,8
0.5,64.0,384,8,0,64.0,0.0,18.0,0.0,0.0,15.654,15.654,230.90701413154602,64,384,1,8
0.5,64.0,384,8,0,64.0,0.0,18.3,0.0,0.0,13.634,13.634,231.40290880203247,64,384,1,8
0.5,64.0,384,8,0,64.0,0.0,18.1,0.0,0.0,14.39,14.39,231.90336728096008,64,384,1,8
0.5,64.0,384,8,0,64.0,0.0,18.2,0.0,0.0,14.434,14.434,232.40126633644104,64,384,1,8
0.5,64.0,384,8,0,64.0,0.0,17.9,0.0,0.0,15.44,15.44,232.90632891654968,64,384,1,8
0.5,64.0,384,8,3,64.0,0.0,18.0,0.0,0.0,15.682,15.682,233.40725803375244,64,384,1,8
0.5,64.0,384,8,0,64.0,0.0,18.0,0.0,0.0,15.742,15.742,233.9081470966339,64,384,1,8
0.5,64.0,384,8,0,64.0,0.0,17.9,0.0,0.0,15.612,15.612,234.4070587158203,64,384,1,8
0.5,64.0,384,8,0,64.0,0.0,17.9,0.0,0.0,14.868,14.868,234.9058096408844,64,384,1,8
0.5,64.0,384,8,0,64.0,0.0,17.8,0.0,0.0,14.394,14.394,235.4058074951172,64,384,1,8
0.5,64.0,384,8,0,64.0,0.0,17.9,0.0,0.0,16.65,16.65,235.90652084350586,64,384,1,8
0.5,64.0,384,8,0,64.0,0.0,17.8,0.0,0.0,16.664,16.664,236.40703582763672,64,384,1,8
0.5,64.0,384,8,0,64.0,0.0,17.8,0.0,0.0,16.21,16.21,236.90711998939514,64,384,1,8
0.5,64.0,384,8,0,64.0,0.0,17.8,0.0,0.0,16.168,16.168,237.4068887233734,64,384,1,8
0.5,64.0,384,8,0,64.0,0.0,17.9,0.0,0.0,13.96,13.96,237.90628170967102,64,384,1,8
0.5,64.0,384,8,0,64.0,0.0,18.2,0.0,0.0,15.122,15.122,238.40871787071228,64,384,1,8
0.5,64.0,384,8,0,64.0,0.0,18.2,0.0,0.0,15.478,15.478,238.90925693511963,64,384,1,8
0.5,64.0,384,8,4,64.0,0.0,18.3,0.0,0.0,13.346,13.346,239.4061620235443,64,384,1,8
0.5,64.0,384,8,0,64.0,0.0,18.1,0.0,0.0,13.44,13.44,239.90607118606567,64,384,1,8
0.5,64.0,384,8,0,64.0,0.0,18.2,0.0,0.0,15.64,15.64,240.40783762931824,64,384,1,8
0.5,64.0,384,8,0,64.0,0.0,18.1,0.0,0.0,14.846,14.846,240.90638422966003,64,384,1,8
0.5,64.0,384,8,0,64.0,0.0,18.0,0.0,0.0,15.968,15.968,241.4080445766449,64,384,1,8
0.5,64.0,384,8,0,64.0,0.0,18.0,0.0,0.0,15.996,15.996,241.9027440547943,64,384,1,8
0.5,64.0,384,8,0,64.0,0.0,18.0,0.0,0.0,15.382,15.382,242.40307688713074,64,384,1,8
0.5,64.0,384,8,0,64.0,0.0,18.0,0.0,0.0,15.074,15.074,242.90693306922913,64,384,1,8
0.5,64.0,384,8,0,64.0,0.0,18.2,0.0,0.0,14.248,14.248,243.40209221839905,64,384,1,8
0.5,64.0,384,8,0,64.0,0.0,18.1,0.0,0.0,14.7,14.7,243.90158820152283,64,384,1,8
0.5,64.0,384,8,0,64.0,0.0,18.1,0.0,0.0,14.65,14.65,244.40337824821472,64,384,1,8
0.5,64.0,384,8,0,64.0,0.0,18.2,0.0,0.0,14.472,14.472,244.9025526046753,64,384,1,8
0.5,64.0,384,8,5,64.0,0.0,18.0,0.0,0.0,14.598,14.598,245.40703105926514,64,384,1,8
0.5,64.0,384,8,0,64.0,0.0,17.9,0.0,0.0,15.65,15.65,245.90721726417542,64,384,1,8
0.5,64.0,384,8,0,64.0,0.0,18.1,0.0,0.0,14.486,14.486,246.40099000930786,64,384,1,8
0.5,64.0,384,8,0,64.0,0.0,18.0,0.0,0.0,14.136,14.136,246.9069561958313,64,384,1,8
0.5,64.0,384,8,0,64.0,0.0,18.1,0.0,0.0,14.718,14.718,247.4039375782013,64,384,1,8
0.5,64.0,384,8,0,64.0,0.0,18.0,0.0,0.0,14.408,14.408,247.9022810459137,64,384,1,8
0.5,64.0,384,8,0,64.0,0.0,18.2,0.0,0.0,14.08,14.08,248.40113759040833,64,384,1,8
0.5,64.0,384,8,0,64.0,0.0,18.2,0.0,0.0,14.126,14.126,248.90427422523499,64,384,1,8
0.5,64.0,384,8,0,64.0,0.0,18.1,0.0,0.0,14.238,14.238,249.40219402313232,64,384,1,8
0.5,64.0,384,8,0,64.0,0.0,18.1,0.0,0.0,14.862,14.862,249.90065240859985,64,384,1,8
0.5,64.0,384,8,0,64.0,0.0,18.1,0.0,0.0,14.844,14.844,250.40688014030457,64,384,1,8
0.5,64.0,384,8,0,64.0,0.0,18.1,0.0,0.0,14.352,14.352,250.90245032310486,64,384,1,8
0.5,64.0,384,8,6,64.0,0.0,18.3,0.0,0.0,13.716,13.716,251.4028651714325,64,384,1,8
0.5,64.0,384,8,0,64.0,0.0,18.2,0.0,0.0,14.034,14.034,251.90290689468384,64,384,1,8
0.5,64.0,384,8,0,64.0,0.0,18.1,0.0,0.0,13.884,13.884,252.4020071029663,64,384,1,8
0.5,64.0,384,8,0,64.0,0.0,18.1,0.0,0.0,14.802,14.802,252.9039273262024,64,384,1,8
0.5,64.0,384,8,0,64.0,0.0,18.1,0.0,0.0,15.534,15.534,253.4069538116455,64,384,1,8
0.5,64.0,384,8,0,64.0,0.0,18.0,0.0,0.0,14.98,14.98,253.9021954536438,64,384,1,8
0.5,64.0,384,8,0,64.0,0.0,18.2,0.0,0.0,14.594,14.594,254.4088156223297,64,384,1,8
0.5,64.0,384,8,0,64.0,0.0,18.2,0.0,0.0,14.054,14.054,254.90251445770264,64,384,1,8
0.5,64.0,384,8,0,64.0,0.0,18.1,0.0,0.0,15.244,15.244,255.40283012390137,64,384,1,8
0.5,64.0,384,8,0,64.0,0.0,18.3,0.0,0.0,14.158,14.158,255.9015965461731,64,384,1,8
0.5,64.0,384,8,0,64.0,0.0,18.0,0.0,0.0,14.468,14.468,256.4016411304474,64,384,1,8
0.5,64.0,384,8,0,64.0,0.0,17.8,0.0,0.0,15.26,15.26,256.9038441181183,64,384,1,8
0.5,64.0,384,8,7,64.0,0.0,17.8,0.0,0.0,14.174,14.174,257.4060363769531,64,384,1,8
0.5,64.0,384,8,0,64.0,0.0,17.8,0.0,0.0,13.652,13.652,257.90073347091675,64,384,1,8
0.5,64.0,384,8,0,64.0,0.0,17.9,0.0,0.0,15.358,15.358,258.40054297447205,64,384,1,8
0.5,64.0,384,8,0,64.0,0.0,18.2,0.0,0.0,15.052,15.052,258.9022078514099,64,384,1,8
0.5,64.0,384,8,0,64.0,0.0,18.2,0.0,0.0,14.33,14.33,259.4073190689087,64,384,1,8
0.5,64.0,384,8,0,64.0,0.0,18.2,0.0,0.0,15.044,15.044,259.9064450263977,64,384,1,8
0.5,64.0,384,8,0,64.0,0.0,18.1,0.0,0.0,14.786,14.786,260.40123891830444,64,384,1,8
0.5,64.0,384,8,0,64.0,0.0,18.3,0.0,0.0,14.164,14.164,260.9078814983368,64,384,1,8
0.5,64.0,384,8,0,64.0,0.0,18.1,0.0,0.0,14.868,14.868,261.40046525001526,64,384,1,8
0.5,64.0,384,8,0,64.0,0.0,18.0,0.0,0.0,15.342,15.342,261.9062943458557,64,384,1,8
0.5,64.0,384,8,0,64.0,0.0,18.0,0.0,0.0,14.422,14.422,262.400593996048,64,384,1,8
0.5,64.0,384,8,0,64.0,0.0,18.0,0.0,0.0,14.806,14.806,262.9007143974304,64,384,1,8
10.0,64.0,384,8,8,64.02,0.8002,96.0,942.984,0.341,962.316,1905.642,272.89811873435974,64,384,1,8
0.5,64.0,384,8,0,64.0,0.0,17.8,0.0,0.0,14.606,14.606,273.3980858325958,64,384,1,8
0.5,64.0,384,8,0,64.0,0.0,17.8,0.0,0.0,13.124,13.124,273.89895963668823,64,384,1,8
0.5,64.0,384,8,0,64.0,0.0,17.9,0.0,0.0,13.108,13.108,274.40157651901245,64,384,1,8
0.5,64.0,384,8,0,64.0,0.0,17.9,0.0,0.0,13.07,13.07,274.8984353542328,64,384,1,8
0.5,64.0,384,8,2,64.0,0.0,17.8,0.0,0.0,16.5,16.5,275.3984260559082,64,384,1,8
0.5,64.0,384,8,0,64.0,0.0,17.9,0.0,0.0,14.036,14.036,275.898384809494,64,384,1,8
0.5,64.0,384,8,0,64.0,0.0,17.8,0.0,0.0,15.444,15.444,276.3985981941223,64,384,1,8
0.5,64.0,384,8,0,64.0,0.0,17.7,0.0,0.0,15.26,15.26,276.8991389274597,64,384,1,8
0.5,64.0,384,8,0,64.0,0.0,17.9,0.0,0.0,14.056,14.056,277.39821457862854,64,384,1,8
0.5,64.0,384,8,0,64.0,0.0,17.8,0.0,0.0,15.802,15.802,277.89972162246704,64,384,1,8
0.5,64.0,384,8,0,64.0,0.0,17.9,0.0,0.0,14.834,14.834,278.4011387825012,64,384,1,8
0.5,64.0,384,8,0,64.0,0.0,17.9,0.0,0.0,14.46,14.46,278.9009563922882,64,384,1,8
0.5,64.0,384,8,0,64.0,0.0,17.9,0.0,0.0,15.1,15.1,279.399099111557,64,384,1,8
0.5,64.0,384,8,0,64.0,0.0,18.2,0.0,0.0,13.58,13.58,279.89812421798706,64,384,1,8
0.5,64.0,384,8,0,64.0,0.0,18.1,0.0,0.0,13.374,13.374,280.4001271724701,64,384,1,8
0.5,64.0,384,8,0,64.0,0.0,18.2,0.0,0.0,14.256,14.256,280.89796233177185,64,384,1,8
0.5,64.0,384,8,3,64.0,0.0,18.2,0.0,0.0,15.254,15.254,281.39963006973267,64,384,1,8
0.5,64.0,384,8,0,48.0,0.0,17.7,0.0,0.0,11.626,11.626,281.9017057418823,64,384,1,8
0.5,64.0,384,8,0,80.0,0.0,18.2,0.0,0.0,18.418,18.418,282.39933013916016,64,384,1,8
0.5,64.0,384,8,0,64.0,0.0,17.8,0.0,0.0,12.718,12.718,282.89831018447876,64,384,1,8
0.5,64.0,384,8,0,64.0,0.0,17.8,0.0,0.0,13.108,13.108,283.3998188972473,64,384,1,8
0.5,64.0,384,8,0,64.0,0.0,17.9,0.0,0.0,14.382,14.382,283.9013183116913,64,384,1,8
0.5,64.0,384,8,0,64.0,0.0,17.9,0.0,0.0,13.738,13.738,284.4016840457916,64,384,1,8
0.5,64.0,384,8,0,64.0,0.0,17.9,0.0,0.0,15.924,15.924,284.9010319709778,64,384,1,8
0.5,64.0,384,8,0,64.0,0.0,17.8,0.0,0.0,15.274,15.274,285.40041637420654,64,384,1,8
0.5,64.0,384,8,0,64.0,0.0,17.9,0.0,0.0,14.952,14.952,285.90003395080566,64,384,1,8
0.5,64.0,384,8,0,64.0,0.0,18.0,0.0,0.0,14.664,14.664,286.4004623889923,64,384,1,8
0.5,64.0,384,8,0,64.0,0.0,17.9,0.0,0.0,14.748,14.748,286.9023222923279,64,384,1,8
0.5,64.0,384,8,4,64.0,0.0,17.9,0.0,0.0,15.938,15.938,287.40099000930786,64,384,1,8
0.5,64.0,384,8,0,64.0,0.0,17.8,0.0,0.0,13.916,13.916,287.89792227745056,64,384,1,8
0.5,64.0,384,8,0,64.0,0.0,17.9,0.0,0.0,13.684,13.684,288.40029883384705,64,384,1,8
0.5,64.0,384,8,0,64.0,0.0,18.0,0.0,0.0,14.078,14.078,288.90104722976685,64,384,1,8
0.5,64.0,384,8,0,64.0,0.0,18.0,0.0,0.0,14.376,14.376,289.4021415710449,64,384,1,8
0.5,64.0,384,8,0,64.0,0.0,17.8,0.0,0.0,14.82,14.82,289.9014983177185,64,384,1,8
0.5,64.0,384,8,0,64.0,0.0,18.0,0.0,0.0,14.16,14.16,290.4016432762146,64,384,1,8
0.5,64.0,384,8,0,64.0,0.0,17.9,0.0,0.0,13.934,13.934,290.90215396881104,64,384,1,8
0.5,64.0,384,8,0,64.0,0.0,17.8,0.0,0.0,15.072,15.072,291.40033316612244,64,384,1,8
0.5,64.0,384,8,0,64.0,0.0,17.9,0.0,0.0,15.1,15.1,291.9023883342743,64,384,1,8
0.5,64.0,384,8,0,64.0,0.0,18.0,0.0,0.0,14.288,14.288,292.40233993530273,64,384,1,8
0.5,64.0,384,8,0,64.0,0.0,17.9,0.0,0.0,14.606,14.606,292.9005117416382,64,384,1,8
0.5,64.0,384,8,5,64.0,0.0,18.0,0.0,0.0,16.054,16.054,293.40224170684814,64,384,1,8
0.5,64.0,384,8,0,64.0,0.0,17.8,0.0,0.0,15.104,15.104,293.89948320388794,64,384,1,8
0.5,64.0,384,8,0,64.0,0.0,17.9,0.0,0.0,15.754,15.754,294.3991849422455,64,384,1,8
0.5,64.0,384,8,0,64.0,0.0,18.0,0.0,0.0,14.428,14.428,294.8991069793701,64,384,1,8
0.5,64.0,384,8,0,64.0,0.0,17.9,0.0,0.0,15.602,15.602,295.39963269233704,64,384,1,8
0.5,64.0,384,8,0,64.0,0.0,17.9,0.0,0.0,15.11,15.11,295.89853715896606,64,384,1,8
0.5,64.0,384,8,0,64.0,0.0,17.8,0.0,0.0,13.31,13.31,296.39833760261536,64,384,1,8
0.5,64.0,384,8,0,64.0,0.0,17.9,0.0,0.0,14.538,14.538,296.8981878757477,64,384,1,8
0.5,64.0,384,8,0,64.0,0.0,17.9,0.0,0.0,16.214,16.214,297.3989751338959,64,384,1,8
0.5,64.0,384,8,0,64.0,0.0,17.9,0.0,0.0,14.692,14.692,297.89931988716125,64,384,1,8
0.5,64.0,384,8,0,64.0,0.0,17.8,0.0,0.0,14.4,14.4,298.398752450943,64,384,1,8
0.5,64.0,384,8,0,64.0,0.0,17.9,0.0,0.0,16.326,16.326,298.9019784927368,64,384,1,8
0.5,64.0,384,8,6,64.0,0.0,17.8,0.0,0.0,15.084,15.084,299.3983311653137,64,384,1,8
0.5,64.0,384,8,0,64.0,0.0,17.9,0.0,0.0,16.478,16.478,299.8993127346039,64,384,1,8
0.5,64.0,384,8,0,64.0,0.0,18.1,0.0,0.0,16.324,16.324,300.3992462158203,64,384,1,8
0.5,64.0,384,8,0,64.0,0.0,18.3,0.0,0.0,15.198,15.198,300.90043473243713,64,384,1,8
0.5,64.0,384,8,0,64.0,0.0,18.1,0.0,0.0,15.698,15.698,301.40184450149536,64,384,1,8
0.5,64.0,384,8,0,64.0,0.0,18.2,0.0,0.0,14.676,14.676,301.9028012752533,64,384,1,8
0.5,64.0,384,8,0,64.0,0.0,18.2,0.0,0.0,15.47,15.47,302.3996636867523,64,384,1,8
0.5,64.0,384,8,0,64.0,0.0,18.1,0.0,0.0,15.172,15.172,302.8994925022125,64,384,1,8
0.5,64.0,384,8,0,64.0,0.0,17.9,0.0,0.0,16.188,16.188,303.400208234787,64,384,1,8
0.5,64.0,384,8,0,64.0,0.0,17.9,0.0,0.0,14.514,14.514,303.9017448425293,64,384,1,8
0.5,64.0,384,8,0,64.0,0.0,18.0,0.0,0.0,15.832,15.832,304.4020221233368,64,384,1,8
0.5,64.0,384,8,0,64.0,0.0,17.8,0.0,0.0,14.622,14.622,304.90481328964233,64,384,1,8
0.5,64.0,384,8,7,64.0,0.0,17.8,0.0,0.0,15.134,15.134,305.39958810806274,64,384,1,8
0.5,64.0,384,8,0,64.0,0.0,17.9,0.0,0.0,14.372,14.372,305.89913034439087,64,384,1,8
0.5,64.0,384,8,0,64.0,0.0,17.9,0.0,0.0,15.76,15.76,306.4010491371155,64,384,1,8
0.5,64.0,384,8,0,64.0,0.0,17.9,0.0,0.0,14.662,14.662,306.9027018547058,64,384,1,8
0.5,64.0,384,8,0,64.0,0.0,17.9,0.0,0.0,15.184,15.184,307.39455938339233,64,384,1,8
0.5,64.0,384,8,0,64.0,0.0,17.9,0.0,0.0,15.334,15.334,307.90105175971985,64,384,1,8
0.5,64.0,384,8,0,64.0,0.0,17.9,0.0,0.0,15.07,15.07,308.4002640247345,64,384,1,8
0.5,64.0,384,8,0,64.0,0.0,17.9,0.0,0.0,14.588,14.588,308.899551153183,64,384,1,8
0.5,64.0,384,8,0,64.0,0.0,17.9,0.0,0.0,16.23,16.23,309.3994052410126,64,384,1,8
0.5,64.0,384,8,0,64.0,0.0,17.9,0.0,0.0,15.934,15.934,309.90104937553406,64,384,1,8
0.5,64.0,384,8,0,64.0,0.0,17.9,0.0,0.0,15.902,15.902,310.40308952331543,64,384,1,8
0.5,64.0,384,8,0,64.0,0.0,17.9,0.0,0.0,14.934,14.934,310.89975595474243,64,384,1,8
9.84,64.0,384,8,8,9.76,0.8133,95.9,958.41,0.343,961.128,1919.881,320.73699045181274,64,384,1,8
0.5,64.0,384,8,0,0.0,0.0,16.6,0.0,0.0,0.0,0.0,321.23269844055176,64,384,1,8
0.5,64.0,384,8,0,0.0,0.0,16.6,0.0,0.0,0.0,0.0,321.7409977912903,64,384,1,8
