dt,Fs,HOP,BATCH,pend_peak,samp,inf,active,infer_ms_s,fill_ms_s,rx_ms_s,eproxy_ms_s,t_sec,fs_run,hop_run,batch_run,burst_run
0.5,64.0,384,8,0,32.0,0.0,17.1,0.0,0.0,6.262,6.262,0.026650190353393555,64,384,1,16
0.5,64.0,384,8,0,64.0,0.0,17.7,0.0,0.0,13.768,13.768,0.527592658996582,64,384,1,16
0.5,64.0,384,8,0,64.0,0.0,17.7,0.0,0.0,16.076,16.076,1.0219800472259521,64,384,1,16
0.5,64.0,384,8,0,64.0,0.0,17.8,0.0,0.0,16.896,16.896,1.5292236804962158,64,384,1,16
0.5,64.0,384,8,0,64.0,0.0,17.8,0.0,0.0,16.246,16.246,2.022707939147949,64,384,1,16
0.5,64.0,384,8,0,64.0,0.0,17.9,0.0,0.0,16.096,16.096,2.522469997406006,64,384,1,16
0.5,64.0,384,8,0,64.0,0.0,17.9,0.0,0.0,14.636,14.636,3.022805690765381,64,384,1,16
0.5,64.0,384,8,0,64.0,0.0,17.8,0.0,0.0,15.686,15.686,3.5303099155426025,64,384,1,16
0.5,64.0,384,8,0,64.0,0.0,17.9,0.0,0.0,16.258,16.258,4.0222179889678955,64,384,1,16
0.5,64.0,384,8,0,64.0,0.0,17.9,0.0,0.0,16.406,16.406,4.522228240966797,64,384,1,16
0.5,64.0,384,8,1,64.0,0.0,17.7,0.0,0.0,16.4,16.4,5.027387857437134,64,384,1,16
0.5,64.0,384,8,0,64.0,0.0,17.8,0.0,0.0,13.942,13.942,5.527148485183716,64,384,1,16
0.5,64.0,384,8,0,64.0,0.0,17.8,0.0,0.0,13.476,13.476,6.027460098266602,64,384,1,16
0.5,64.0,384,8,0,64.0,0.0,17.7,0.0,0.0,16.256,16.256,6.5301923751831055,64,384,1,16
0.5,64.0,384,8,0,64.0,0.0,17.7,0.0,0.0,14.574,14.574,7.029307842254639,64,384,1,16
0.5,64.0,384,8,0,64.0,0.0,17.8,0.0,0.0,16.326,16.326,7.521979331970215,64,384,1,16
0.5,64.0,384,8,0,64.0,0.0,17.9,0.0,0.0,16.252,16.252,8.0285005569458,64,384,1,16
0.5,64.0,384,8,0,64.0,0.0,17.8,0.0,0.0,16.112,16.112,8.521654605865479,64,384,1,16
0.5,64.0,384,8,0,64.0,0.0,17.8,0.0,0.0,15.66,15.66,9.02944803237915,64,384,1,16
0.5,64.0,384,8,0,64.0,0.0,17.9,0.0,0.0,15.948,15.948,9.530093669891357,64,384,1,16
0.5,64.0,384,8,0,64.0,0.0,17.9,0.0,0.0,14.694,14.694,10.02931022644043,64,384,1,16
0.5,64.0,384,8,0,64.0,0.0,17.8,0.0,0.0,14.054,14.054,10.527682542800903,64,384,1,16
0.5,64.0,384,8,2,64.0,0.0,17.7,0.0,0.0,14.558,14.558,11.02827525138855,64,384,1,16
0.5,64.0,384,8,0,64.0,0.0,17.8,0.0,0.0,15.962,15.962,11.523834943771362,64,384,1,16
0.5,64.0,384,8,0,64.0,0.0,17.8,0.0,0.0,14.262,14.262,12.021262645721436,64,384,1,16
0.5,64.0,384,8,0,64.0,0.0,17.9,0.0,0.0,15.568,15.568,12.523398637771606,64,384,1,16
0.5,64.0,384,8,0,64.0,0.0,17.8,0.0,0.0,15.2,15.2,13.022716522216797,64,384,1,16
0.5,64.0,384,8,0,64.0,0.0,17.9,0.0,0.0,15.964,15.964,13.528812646865845,64,384,1,16
0.5,64.0,384,8,0,64.0,0.0,17.8,0.0,0.0,16.06,16.06,14.02223014831543,64,384,1,16
0.5,64.0,384,8,0,64.0,0.0,17.9,0.0,0.0,16.382,16.382,14.521140336990356,64,384,1,16
0.5,64.0,384,8,0,64.0,0.0,17.8,0.0,0.0,15.822,15.822,15.028515100479126,64,384,1,16
0.5,64.0,384,8,0,64.0,0.0,17.7,0.0,0.0,15.778,15.778,15.522132635116577,64,384,1,16
0.5,64.0,384,8,0,64.0,0.0,18.1,0.0,0.0,16.336,16.336,16.029019594192505,64,384,1,16
0.5,64.0,384,8,0,64.0,0.0,18.1,0.0,0.0,16.346,16.346,16.528660535812378,64,384,1,16
0.5,64.0,384,8,3,64.0,0.0,18.1,0.0,0.0,15.966,15.966,17.029011726379395,64,384,1,16
0.5,64.0,384,8,0,64.0,0.0,18.1,0.0,0.0,14.686,14.686,17.522372245788574,64,384,1,16
0.5,64.0,384,8,0,64.0,0.0,18.2,0.0,0.0,16.26,16.26,18.021803379058838,64,384,1,16
0.5,64.0,384,8,0,64.0,0.0,18.0,0.0,0.0,15.954,15.954,18.52220582962036,64,384,1,16
0.5,64.0,384,8,0,64.0,0.0,17.9,0.0,0.0,16.236,16.236,19.02898907661438,64,384,1,16
0.5,64.0,384,8,0,64.0,0.0,17.8,0.0,0.0,16.204,16.204,19.52862000465393,64,384,1,16
0.5,64.0,384,8,0,64.0,0.0,17.8,0.0,0.0,16.316,16.316,20.028111219406128,64,384,1,16
0.5,64.0,384,8,0,64.0,0.0,17.8,0.0,0.0,16.476,16.476,20.530707359313965,64,384,1,16
0.5,64.0,384,8,0,64.0,0.0,17.9,0.0,0.0,16.206,16.206,21.021817684173584,64,384,1,16
0.5,64.0,384,8,0,64.0,0.0,18.0,0.0,0.0,15.716,15.716,21.529557943344116,64,384,1,16
0.5,64.0,384,8,0,64.0,0.0,18.1,0.0,0.0,14.944,14.944,22.0262770652771,64,384,1,16
0.5,64.0,384,8,0,64.0,0.0,17.9,0.0,0.0,15.236,15.236,22.526371955871582,64,384,1,16
0.5,64.0,384,8,4,64.0,0.0,18.0,0.0,0.0,15.1,15.1,23.026501178741455,64,384,1,16
0.5,64.0,384,8,0,64.0,0.0,18.0,0.0,0.0,14.96,14.96,23.528260469436646,64,384,1,16
0.5,64.0,384,8,0,64.0,0.0,18.0,0.0,0.0,14.812,14.812,24.0262610912323,64,384,1,16
0.5,64.0,384,8,0,64.0,0.0,18.0,0.0,0.0,15.564,15.564,24.52841281890869,64,384,1,16
0.5,64.0,384,8,0,64.0,0.0,17.9,0.0,0.0,15.732,15.732,25.027222394943237,64,384,1,16
0.5,64.0,384,8,0,64.0,0.0,18.1,0.0,0.0,14.91,14.91,25.524041414260864,64,384,1,16
0.5,64.0,384,8,0,64.0,0.0,18.1,0.0,0.0,14.728,14.728,26.02793049812317,64,384,1,16
0.5,64.0,384,8,0,64.0,0.0,17.7,0.0,0.0,16.26,16.26,26.521002054214478,64,384,1,16
0.5,64.0,384,8,0,64.0,0.0,17.9,0.0,0.0,15.87,15.87,27.02893853187561,64,384,1,16
0.5,64.0,384,8,0,64.0,0.0,17.9,0.0,0.0,15.234,15.234,27.52756357192993,64,384,1,16
0.5,64.0,384,8,0,64.0,0.0,17.7,0.0,0.0,16.2,16.2,28.02393937110901,64,384,1,16
0.5,64.0,384,8,0,64.0,0.0,17.9,0.0,0.0,15.94,15.94,28.52482271194458,64,384,1,16
0.5,64.0,384,8,5,64.0,0.0,18.1,0.0,0.0,14.19,14.19,29.027660846710205,64,384,1,16
0.5,64.0,384,8,0,64.0,0.0,18.0,0.0,0.0,15.344,15.344,29.524821281433105,64,384,1,16
0.5,64.0,384,8,0,64.0,0.0,18.1,0.0,0.0,14.64,14.64,30.024531602859497,64,384,1,16
0.5,64.0,384,8,0,64.0,0.0,17.9,0.0,0.0,16.09,16.09,30.524280548095703,64,384,1,16
0.5,64.0,384,8,0,64.0,0.0,18.1,0.0,0.0,15.094,15.094,31.023905038833618,64,384,1,16
0.5,64.0,384,8,0,64.0,0.0,18.1,0.0,0.0,14.036,14.036,31.521204948425293,64,384,1,16
0.5,64.0,384,8,0,64.0,0.0,18.0,0.0,0.0,14.484,14.484,32.024255990982056,64,384,1,16
0.5,64.0,384,8,0,64.0,0.0,17.9,0.0,0.0,15.644,15.644,32.52671957015991,64,384,1,16
0.5,64.0,384,8,0,64.0,0.0,17.8,0.0,0.0,16.874,16.874,33.02135467529297,64,384,1,16
0.5,64.0,384,8,0,64.0,0.0,17.9,0.0,0.0,15.796,15.796,33.52713465690613,64,384,1,16
0.5,64.0,384,8,0,64.0,0.0,17.9,0.0,0.0,15.686,15.686,34.02112340927124,64,384,1,16
0.5,64.0,384,8,0,64.0,0.0,18.0,0.0,0.0,15.73,15.73,34.52353262901306,64,384,1,16
0.5,64.0,384,8,6,64.0,0.0,17.8,0.0,0.0,16.708,16.708,35.02090907096863,64,384,1,16
0.5,64.0,384,8,0,64.0,0.0,17.9,0.0,0.0,15.326,15.326,35.52395558357239,64,384,1,16
0.5,64.0,384,8,0,64.0,0.0,17.7,0.0,0.0,16.682,16.682,36.02099299430847,64,384,1,16
0.5,64.0,384,8,0,64.0,0.0,18.1,0.0,0.0,15.75,15.75,36.524468421936035,64,384,1,16
0.5,64.0,384,8,0,64.0,0.0,18.2,0.0,0.0,15.558,15.558,37.02212619781494,64,384,1,16
0.5,64.0,384,8,0,64.0,0.0,18.2,0.0,0.0,15.158,15.158,37.52393960952759,64,384,1,16
0.5,64.0,384,8,0,64.0,0.0,18.2,0.0,0.0,16.37,16.37,38.02107787132263,64,384,1,16
0.5,64.0,384,8,0,64.0,0.0,18.4,0.0,0.0,14.776,14.776,38.52530097961426,64,384,1,16
0.5,64.0,384,8,0,64.0,0.0,18.4,0.0,0.0,14.814,14.814,39.02702593803406,64,384,1,16
0.5,64.0,384,8,0,64.0,0.0,18.0,0.0,0.0,14.224,14.224,39.52491807937622,64,384,1,16
0.5,64.0,384,8,0,64.0,0.0,18.1,0.0,0.0,14.662,14.662,40.026490688323975,64,384,1,16
0.5,64.0,384,8,0,64.0,0.0,18.1,0.0,0.0,14.468,14.468,40.52725601196289,64,384,1,16
0.5,64.0,384,8,7,64.0,0.0,17.8,0.0,0.0,15.92,15.92,41.021305084228516,64,384,1,16
0.5,64.0,384,8,0,64.0,0.0,17.9,0.0,0.0,15.614,15.614,41.526726961135864,64,384,1,16
0.5,64.0,384,8,0,64.0,0.0,17.8,0.0,0.0,16.204,16.204,42.022605419158936,64,384,1,16
0.5,64.0,384,8,0,64.0,0.0,17.9,0.0,0.0,15.986,15.986,42.52290344238281,64,384,1,16
0.5,64.0,384,8,0,64.0,0.0,17.8,0.0,0.0,17.064,17.064,43.021342754364014,64,384,1,16
0.5,64.0,384,8,0,64.0,0.0,18.0,0.0,0.0,14.206,14.206,43.520111083984375,64,384,1,16
0.5,64.0,384,8,0,64.0,0.0,17.9,0.0,0.0,15.118,15.118,44.0224826335907,64,384,1,16
0.5,64.0,384,8,0,64.0,0.0,17.9,0.0,0.0,15.634,15.634,44.52477216720581,64,384,1,16
0.5,64.0,384,8,0,64.0,0.0,18.0,0.0,0.0,15.43,15.43,45.02428388595581,64,384,1,16
0.5,64.0,384,8,0,64.0,0.0,17.9,0.0,0.0,15.002,15.002,45.52399444580078,64,384,1,16
0.5,64.0,384,8,0,64.0,0.0,17.8,0.0,0.0,15.348,15.348,46.023115158081055,64,384,1,16
0.5,64.0,384,8,0,64.0,0.0,18.0,0.0,0.0,15.33,15.33,46.523345708847046,64,384,1,16
9.58,64.0,384,8,8,6.16,0.8349,97.9,983.859,0.359,985.604,1969.822,56.10569977760315,64,384,1,16
0.5,64.0,384,8,1,1162.0,0.0,45.9,0.0,0.0,348.482,348.482,56.60444450378418,64,384,1,16
0.5,64.0,384,8,0,64.0,0.0,18.0,0.0,0.0,15.572,15.572,57.10894179344177,64,384,1,16
0.5,64.0,384,8,0,64.0,0.0,18.2,0.0,0.0,15.54,15.54,57.60791230201721,64,384,1,16
0.5,64.0,384,8,0,64.0,0.0,18.2,0.0,0.0,15.814,15.814,58.11008048057556,64,384,1,16
0.5,64.0,384,8,0,64.0,0.0,18.1,0.0,0.0,13.608,13.608,58.605754137039185,64,384,1,16
0.5,64.0,384,8,2,64.0,0.0,18.2,0.0,0.0,13.826,13.826,59.10334038734436,64,384,1,16
0.5,64.0,384,8,0,64.0,0.0,18.1,0.0,0.0,16.438,16.438,59.603333950042725,64,384,1,16
0.5,64.0,384,8,0,64.0,0.0,18.0,0.0,0.0,16.41,16.41,60.10668683052063,64,384,1,16
0.5,64.0,384,8,0,64.0,0.0,17.8,0.0,0.0,15.446,15.446,60.60631966590881,64,384,1,16
0.5,64.0,384,8,0,64.0,0.0,17.8,0.0,0.0,14.45,14.45,61.10812520980835,64,384,1,16
0.5,64.0,384,8,0,64.0,0.0,18.0,0.0,0.0,14.676,14.676,61.60788702964783,64,384,1,16
0.5,64.0,384,8,0,64.0,0.0,17.7,0.0,0.0,15.748,15.748,62.10830569267273,64,384,1,16
0.5,64.0,384,8,0,64.0,0.0,17.9,0.0,0.0,16.698,16.698,62.603355884552,64,384,1,16
0.5,64.0,384,8,0,64.0,0.0,17.9,0.0,0.0,16.09,16.09,63.10813665390015,64,384,1,16
0.5,64.0,384,8,0,64.0,0.0,18.0,0.0,0.0,15.692,15.692,63.607287883758545,64,384,1,16
0.5,64.0,384,8,0,64.0,0.0,17.9,0.0,0.0,16.26,16.26,64.10865426063538,64,384,1,16
0.5,64.0,384,8,0,64.0,0.0,17.8,0.0,0.0,14.096,14.096,64.60550785064697,64,384,1,16
0.5,64.0,384,8,3,64.0,0.0,17.9,0.0,0.0,14.502,14.502,65.11061000823975,64,384,1,16
0.5,64.0,384,8,0,64.0,0.0,18.0,0.0,0.0,15.18,15.18,65.60737609863281,64,384,1,16
0.5,64.0,384,8,0,64.0,0.0,17.9,0.0,0.0,15.644,15.644,66.10903644561768,64,384,1,16
0.5,64.0,384,8,0,64.0,0.0,17.9,0.0,0.0,16.326,16.326,66.60827827453613,64,384,1,16
0.5,64.0,384,8,0,64.0,0.0,17.8,0.0,0.0,14.998,14.998,67.10640549659729,64,384,1,16
0.5,64.0,384,8,0,64.0,0.0,17.8,0.0,0.0,14.846,14.846,67.60735702514648,64,384,1,16
0.5,64.0,384,8,0,64.0,0.0,17.7,0.0,0.0,13.892,13.892,68.1049735546112,64,384,1,16
0.5,64.0,384,8,0,64.0,0.0,17.7,0.0,0.0,15.094,15.094,68.60987424850464,64,384,1,16
0.5,64.0,384,8,0,64.0,0.0,17.8,0.0,0.0,15.512,15.512,69.1101713180542,64,384,1,16
0.5,64.0,384,8,0,64.0,0.0,18.1,0.0,0.0,13.132,13.132,69.60833477973938,64,384,1,16
0.5,64.0,384,8,0,64.0,0.0,18.0,0.0,0.0,15.01,15.01,70.1079614162445,64,384,1,16
0.5,64.0,384,8,0,64.0,0.0,17.8,0.0,0.0,13.648,13.648,70.60502219200134,64,384,1,16
0.5,64.0,384,8,4,64.0,0.0,17.9,0.0,0.0,14.39,14.39,71.10769319534302,64,384,1,16
0.5,64.0,384,8,0,64.0,0.0,17.8,0.0,0.0,14.422,14.422,71.60297775268555,64,384,1,16
0.5,64.0,384,8,0,64.0,0.0,17.8,0.0,0.0,14.686,14.686,72.10548758506775,64,384,1,16
0.5,64.0,384,8,0,64.0,0.0,17.8,0.0,0.0,16.852,16.852,72.60772967338562,64,384,1,16
0.5,64.0,384,8,0,64.0,0.0,17.9,0.0,0.0,15.964,15.964,73.10512566566467,64,384,1,16
0.5,64.0,384,8,0,64.0,0.0,17.9,0.0,0.0,14.628,14.628,73.60509705543518,64,384,1,16
0.5,64.0,384,8,0,64.0,0.0,17.9,0.0,0.0,14.074,14.074,74.11109185218811,64,384,1,16
0.5,64.0,384,8,0,64.0,0.0,17.9,0.0,0.0,16.112,16.112,74.60860395431519,64,384,1,16
0.5,64.0,384,8,0,64.0,0.0,17.8,0.0,0.0,14.186,14.186,75.1042103767395,64,384,1,16
0.5,64.0,384,8,0,64.0,0.0,17.8,0.0,0.0,15.574,15.574,75.60804176330566,64,384,1,16
0.5,64.0,384,8,0,64.0,0.0,17.9,0.0,0.0,14.236,14.236,76.10310959815979,64,384,1,16
0.5,64.0,384,8,0,64.0,0.0,17.7,0.0,0.0,16.412,16.412,76.60752367973328,64,384,1,16
0.5,64.0,384,8,5,64.0,0.0,17.8,0.0,0.0,14.536,14.536,77.10455703735352,64,384,1,16
0.5,64.0,384,8,0,64.0,0.0,17.9,0.0,0.0,15.472,15.472,77.60554432868958,64,384,1,16
0.5,64.0,384,8,0,64.0,0.0,18.2,0.0,0.0,15.708,15.708,78.10890173912048,64,384,1,16
0.5,64.0,384,8,0,64.0,0.0,18.2,0.0,0.0,13.758,13.758,78.60836291313171,64,384,1,16
0.5,64.0,384,8,0,64.0,0.0,18.0,0.0,0.0,12.888,12.888,79.10408902168274,64,384,1,16
0.5,64.0,384,8,0,64.0,0.0,18.0,0.0,0.0,15.882,15.882,79.60669231414795,64,384,1,16
0.5,64.0,384,8,0,64.0,0.0,18.1,0.0,0.0,14.85,14.85,80.10854935646057,64,384,1,16
0.5,64.0,384,8,0,64.0,0.0,18.1,0.0,0.0,14.868,14.868,80.60355305671692,64,384,1,16
0.5,64.0,384,8,0,64.0,0.0,17.7,0.0,0.0,14.688,14.688,81.10303783416748,64,384,1,16
0.5,64.0,384,8,0,64.0,0.0,17.9,0.0,0.0,13.714,13.714,81.60745811462402,64,384,1,16
0.5,64.0,384,8,0,64.0,0.0,17.8,0.0,0.0,14.94,14.94,82.10353136062622,64,384,1,16
0.5,64.0,384,8,0,64.0,0.0,17.9,0.0,0.0,16.392,16.392,82.6082112789154,64,384,1,16
0.5,64.0,384,8,6,64.0,0.0,18.0,0.0,0.0,14.692,14.692,83.10818696022034,64,384,1,16
0.5,64.0,384,8,0,64.0,0.0,17.8,0.0,0.0,14.098,14.098,83.60413336753845,64,384,1,16
0.5,64.0,384,8,0,64.0,0.0,17.8,0.0,0.0,15.358,15.358,84.10702443122864,64,384,1,16
0.5,64.0,384,8,0,64.0,0.0,17.7,0.0,0.0,14.538,14.538,84.60366439819336,64,384,1,16
0.5,64.0,384,8,0,64.0,0.0,17.8,0.0,0.0,15.606,15.606,85.10893774032593,64,384,1,16
0.5,64.0,384,8,0,64.0,0.0,17.7,0.0,0.0,14.26,14.26,85.60346174240112,64,384,1,16
0.5,64.0,384,8,0,64.0,0.0,17.8,0.0,0.0,14.682,14.682,86.10372185707092,64,384,1,16
0.5,64.0,384,8,0,64.0,0.0,17.8,0.0,0.0,16.094,16.094,86.60159373283386,64,384,1,16
0.5,64.0,384,8,0,64.0,0.0,17.8,0.0,0.0,12.56,12.56,87.10403084754944,64,384,1,16
0.5,64.0,384,8,0,64.0,0.0,17.8,0.0,0.0,15.314,15.314,87.60582065582275,64,384,1,16
0.5,64.0,384,8,0,64.0,0.0,17.8,0.0,0.0,14.514,14.514,88.10597491264343,64,384,1,16
0.5,64.0,384,8,0,64.0,0.0,17.7,0.0,0.0,15.616,15.616,88.6061692237854,64,384,1,16
0.5,64.0,384,8,7,64.0,0.0,18.0,0.0,0.0,14.572,14.572,89.10559034347534,64,384,1,16
0.5,64.0,384,8,0,64.0,0.0,17.9,0.0,0.0,16.544,16.544,89.60683965682983,64,384,1,16
0.5,64.0,384,8,0,64.0,0.0,17.8,0.0,0.0,14.402,14.402,90.1072268486023,64,384,1,16
0.5,64.0,384,8,0,64.0,0.0,17.8,0.0,0.0,14.03,14.03,90.60469722747803,64,384,1,16
0.5,64.0,384,8,0,64.0,0.0,17.8,0.0,0.0,16.156,16.156,91.10806465148926,64,384,1,16
0.5,64.0,384,8,0,64.0,0.0,17.9,0.0,0.0,15.112,15.112,91.60889983177185,64,384,1,16
0.5,64.0,384,8,0,64.0,0.0,17.8,0.0,0.0,16.506,16.506,92.10791182518005,64,384,1,16
0.5,64.0,384,8,0,64.0,0.0,17.9,0.0,0.0,15.4,15.4,92.60451602935791,64,384,1,16
0.5,64.0,384,8,0,64.0,0.0,17.8,0.0,0.0,14.544,14.544,93.1042091846466,64,384,1,16
0.5,64.0,384,8,0,64.0,0.0,17.9,0.0,0.0,15.8,15.8,93.60786485671997,64,384,1,16
0.5,64.0,384,8,0,64.0,0.0,17.9,0.0,0.0,15.02,15.02,94.10771155357361,64,384,1,16
0.5,64.0,384,8,0,64.0,0.0,17.8,0.0,0.0,15.518,15.518,94.6068983078003,64,384,1,16
9.66,64.0,384,8,8,62.94,0.8282,98.7,975.762,0.368,994.949,1971.079,104.26380562782288,64,384,1,16
0.5,64.0,384,8,0,64.0,0.0,17.8,0.0,0.0,14.34,14.34,104.7657835483551,64,384,1,16
0.5,64.0,384,8,0,64.0,0.0,17.9,0.0,0.0,14.098,14.098,105.2630934715271,64,384,1,16
0.5,64.0,384,8,0,64.0,0.0,17.7,0.0,0.0,14.446,14.446,105.7652177810669,64,384,1,16
0.5,64.0,384,8,0,64.0,0.0,17.7,0.0,0.0,14.63,14.63,106.26555013656616,64,384,1,16
0.5,64.0,384,8,0,64.0,0.0,17.7,0.0,0.0,14.468,14.468,106.76541709899902,64,384,1,16
0.5,64.0,384,8,2,64.0,0.0,17.7,0.0,0.0,14.11,14.11,107.26570773124695,64,384,1,16
0.5,64.0,384,8,0,64.0,0.0,17.8,0.0,0.0,14.138,14.138,107.76531624794006,64,384,1,16
0.5,64.0,384,8,0,64.0,0.0,17.7,0.0,0.0,12.636,12.636,108.26560926437378,64,384,1,16
0.5,64.0,384,8,0,64.0,0.0,17.8,0.0,0.0,13.922,13.922,108.7635133266449,64,384,1,16
0.5,64.0,384,8,0,64.0,0.0,17.8,0.0,0.0,13.724,13.724,109.2660756111145,64,384,1,16
0.5,64.0,384,8,0,64.0,0.0,17.7,0.0,0.0,14.622,14.622,109.76220273971558,64,384,1,16
0.5,64.0,384,8,0,64.0,0.0,17.7,0.0,0.0,12.596,12.596,110.26622533798218,64,384,1,16
0.5,64.0,384,8,0,64.0,0.0,17.8,0.0,0.0,14.472,14.472,110.7655668258667,64,384,1,16
0.5,64.0,384,8,0,64.0,0.0,17.7,0.0,0.0,12.566,12.566,111.26326990127563,64,384,1,16
0.5,64.0,384,8,0,64.0,0.0,17.7,0.0,0.0,14.016,14.016,111.76542162895203,64,384,1,16
0.5,64.0,384,8,0,64.0,0.0,17.7,0.0,0.0,14.412,14.412,112.26740884780884,64,384,1,16
0.5,64.0,384,8,0,64.0,0.0,17.8,0.0,0.0,14.724,14.724,112.76319742202759,64,384,1,16
0.5,64.0,384,8,3,64.0,0.0,17.6,0.0,0.0,12.538,12.538,113.26491189002991,64,384,1,16
0.5,64.0,384,8,0,64.0,0.0,17.8,0.0,0.0,14.104,14.104,113.76236319541931,64,384,1,16
0.5,64.0,384,8,0,64.0,0.0,17.7,0.0,0.0,14.462,14.462,114.26316261291504,64,384,1,16
0.5,64.0,384,8,0,64.0,0.0,17.7,0.0,0.0,13.082,13.082,114.76415419578552,64,384,1,16
0.5,64.0,384,8,0,64.0,0.0,17.7,0.0,0.0,14.17,14.17,115.2642970085144,64,384,1,16
0.5,64.0,384,8,0,64.0,0.0,17.7,0.0,0.0,14.548,14.548,115.7655074596405,64,384,1,16
0.5,64.0,384,8,0,64.0,0.0,17.8,0.0,0.0,14.894,14.894,116.26440262794495,64,384,1,16
0.5,64.0,384,8,0,64.0,0.0,17.7,0.0,0.0,14.194,14.194,116.76326298713684,64,384,1,16
0.5,64.0,384,8,0,64.0,0.0,17.9,0.0,0.0,14.612,14.612,117.26474714279175,64,384,1,16
0.5,64.0,384,8,0,64.0,0.0,17.7,0.0,0.0,14.814,14.814,117.76342463493347,64,384,1,16
0.5,64.0,384,8,0,64.0,0.0,17.8,0.0,0.0,14.07,14.07,118.26492142677307,64,384,1,16
0.5,64.0,384,8,0,64.0,0.0,17.8,0.0,0.0,14.046,14.046,118.76429343223572,64,384,1,16
0.5,64.0,384,8,4,64.0,0.0,18.1,0.0,0.0,14.746,14.746,119.2644476890564,64,384,1,16
0.5,64.0,384,8,0,64.0,0.0,17.9,0.0,0.0,12.644,12.644,119.76266503334045,64,384,1,16
0.5,64.0,384,8,0,64.0,0.0,18.1,0.0,0.0,14.392,14.392,120.26386260986328,64,384,1,16
0.5,64.0,384,8,0,64.0,0.0,18.1,0.0,0.0,14.11,14.11,120.76338720321655,64,384,1,16
0.5,64.0,384,8,0,64.0,0.0,18.1,0.0,0.0,14.014,14.014,121.26305651664734,64,384,1,16
0.5,64.0,384,8,0,64.0,0.0,18.0,0.0,0.0,14.574,14.574,121.76236152648926,64,384,1,16
0.5,64.0,384,8,0,64.0,0.0,17.8,0.0,0.0,13.878,13.878,122.2653796672821,64,384,1,16
0.5,64.0,384,8,0,64.0,0.0,17.8,0.0,0.0,14.932,14.932,122.76236939430237,64,384,1,16
0.5,64.0,384,8,0,64.0,0.0,17.8,0.0,0.0,14.266,14.266,123.26404142379761,64,384,1,16
0.5,64.0,384,8,0,64.0,0.0,17.7,0.0,0.0,14.158,14.158,123.76256060600281,64,384,1,16
0.5,64.0,384,8,0,64.0,0.0,17.8,0.0,0.0,14.704,14.704,124.26465153694153,64,384,1,16
0.5,64.0,384,8,0,64.0,0.0,17.8,0.0,0.0,14.662,14.662,124.76327729225159,64,384,1,16
0.5,64.0,384,8,5,64.0,0.0,17.7,0.0,0.0,13.97,13.97,125.26403069496155,64,384,1,16
0.5,64.0,384,8,0,64.0,0.0,17.7,0.0,0.0,12.618,12.618,125.76600742340088,64,384,1,16
0.5,64.0,384,8,0,64.0,0.0,17.7,0.0,0.0,12.588,12.588,126.26234936714172,64,384,1,16
0.5,64.0,384,8,0,64.0,0.0,17.8,0.0,0.0,13.41,13.41,126.76574397087097,64,384,1,16
0.5,64.0,384,8,0,64.0,0.0,17.7,0.0,0.0,14.488,14.488,127.2633228302002,64,384,1,16
0.5,64.0,384,8,0,64.0,0.0,17.7,0.0,0.0,14.18,14.18,127.7641019821167,64,384,1,16
0.5,64.0,384,8,0,64.0,0.0,17.7,0.0,0.0,14.236,14.236,128.26462626457214,64,384,1,16
0.5,64.0,384,8,0,64.0,0.0,17.8,0.0,0.0,13.412,13.412,128.76427841186523,64,384,1,16
0.5,64.0,384,8,0,64.0,0.0,17.6,0.0,0.0,14.264,14.264,129.26293182373047,64,384,1,16
0.5,64.0,384,8,0,64.0,0.0,17.7,0.0,0.0,14.116,14.116,129.76478004455566,64,384,1,16
0.5,64.0,384,8,0,64.0,0.0,17.8,0.0,0.0,14.172,14.172,130.26440572738647,64,384,1,16
0.5,64.0,384,8,0,64.0,0.0,17.7,0.0,0.0,14.736,14.736,130.7625207901001,64,384,1,16
0.5,64.0,384,8,6,64.0,0.0,17.7,0.0,0.0,14.442,14.442,131.26466464996338,64,384,1,16
0.5,64.0,384,8,0,64.0,0.0,17.8,0.0,0.0,14.154,14.154,131.76264882087708,64,384,1,16
0.5,64.0,384,8,0,64.0,0.0,17.7,0.0,0.0,14.414,14.414,132.26454734802246,64,384,1,16
0.5,64.0,384,8,0,64.0,0.0,17.8,0.0,0.0,12.63,12.63,132.7650225162506,64,384,1,16
0.5,64.0,384,8,0,64.0,0.0,17.7,0.0,0.0,14.01,14.01,133.2627193927765,64,384,1,16
0.5,64.0,384,8,0,64.0,0.0,17.8,0.0,0.0,14.066,14.066,133.7631950378418,64,384,1,16
0.5,64.0,384,8,0,64.0,0.0,17.8,0.0,0.0,12.55,12.55,134.26555156707764,64,384,1,16
0.5,64.0,384,8,0,64.0,0.0,17.8,0.0,0.0,13.416,13.416,134.7654004096985,64,384,1,16
0.5,64.0,384,8,0,64.0,0.0,17.7,0.0,0.0,13.702,13.702,135.2653567790985,64,384,1,16
0.5,64.0,384,8,0,64.0,0.0,17.8,0.0,0.0,13.842,13.842,135.7630865573883,64,384,1,16
0.5,64.0,384,8,0,64.0,0.0,17.8,0.0,0.0,14.566,14.566,136.26375269889832,64,384,1,16
0.5,64.0,384,8,0,64.0,0.0,17.8,0.0,0.0,13.416,13.416,136.76536083221436,64,384,1,16
0.5,64.0,384,8,7,64.0,0.0,17.8,0.0,0.0,14.208,14.208,137.26486039161682,64,384,1,16
0.5,64.0,384,8,0,64.0,0.0,17.7,0.0,0.0,14.12,14.12,137.76560139656067,64,384,1,16
0.5,64.0,384,8,0,64.0,0.0,17.8,0.0,0.0,14.552,14.552,138.26293015480042,64,384,1,16
0.5,64.0,384,8,0,64.0,0.0,17.8,0.0,0.0,14.232,14.232,138.76488256454468,64,384,1,16
0.5,64.0,384,8,0,64.0,0.0,17.7,0.0,0.0,13.912,13.912,139.26335883140564,64,384,1,16
0.5,64.0,384,8,0,64.0,0.0,18.0,0.0,0.0,14.126,14.126,139.76743483543396,64,384,1,16
0.5,64.0,384,8,0,64.0,0.0,18.1,0.0,0.0,15.566,15.566,140.26503992080688,64,384,1,16
0.5,64.0,384,8,0,64.0,0.0,18.1,0.0,0.0,13.968,13.968,140.76428961753845,64,384,1,16
0.5,64.0,384,8,0,64.0,0.0,18.1,0.0,0.0,14.142,14.142,141.26599836349487,64,384,1,16
0.5,64.0,384,8,0,64.0,0.0,18.3,0.0,0.0,13.148,13.148,141.76637268066406,64,384,1,16
0.5,64.0,384,8,0,64.0,0.0,18.1,0.0,0.0,13.668,13.668,142.26432418823242,64,384,1,16
0.5,64.0,384,8,0,64.0,0.0,17.8,0.0,0.0,15.768,15.768,142.76570558547974,64,384,1,16
9.51,64.0,384,8,8,65.63,0.8414,100.0,991.455,0.363,1011.008,2002.826,152.27128839492798,64,384,1,16
0.5,64.0,384,8,0,48.0,0.0,17.7,0.0,0.0,10.62,10.62,152.76979112625122,64,384,1,16
0.5,64.0,384,8,0,60.0,0.0,17.9,0.0,0.0,13.4,13.4,153.26936745643616,64,384,1,16
0.5,64.0,384,8,0,84.0,0.0,18.3,0.0,0.0,19.92,19.92,153.76631593704224,64,384,1,16
0.5,64.0,384,8,0,63.87,0.0,17.8,0.0,0.0,15.978,15.978,154.27495622634888,64,384,1,16
0.5,64.0,384,8,0,48.0,0.0,17.6,0.0,0.0,10.416,10.416,154.77122831344604,64,384,1,16
0.5,64.0,384,8,2,60.0,0.0,17.9,0.0,0.0,12.834,12.834,155.27361416816711,64,384,1,16
0.5,64.0,384,8,0,74.0,0.0,18.3,0.0,0.0,16.692,16.692,155.7687704563141,64,384,1,16
0.5,64.0,384,8,0,61.88,0.0,17.7,0.0,0.0,14.647,14.647,156.27045941352844,64,384,1,16
0.5,64.0,384,8,0,62.0,0.0,18.1,0.0,0.0,13.386,13.386,156.77102708816528,64,384,1,16
0.5,64.0,384,8,0,77.84,0.0,18.3,0.0,0.0,18.741,18.741,157.2703399658203,64,384,1,16
0.5,64.0,384,8,0,64.0,0.0,18.1,0.0,0.0,14.18,14.18,157.77771759033203,64,384,1,16
0.5,64.0,384,8,0,63.87,0.0,17.9,0.0,0.0,15.563,15.563,158.27087259292603,64,384,1,16
0.5,64.0,384,8,0,64.0,0.0,18.0,0.0,0.0,15.104,15.104,158.7750153541565,64,384,1,16
0.5,64.0,384,8,0,64.0,0.0,18.0,0.0,0.0,15.024,15.024,159.27840876579285,64,384,1,16
0.5,64.0,384,8,0,54.0,0.0,17.6,0.0,0.0,13.202,13.202,159.77354788780212,64,384,1,16
0.5,64.0,384,8,0,74.0,0.0,18.4,0.0,0.0,16.428,16.428,160.27777791023254,64,384,1,16
0.5,64.0,384,8,3,64.0,0.0,18.1,0.0,0.0,15.938,15.938,160.777569770813,64,384,1,16
0.5,64.0,384,8,0,64.0,0.0,18.2,0.0,0.0,15.084,15.084,161.2697479724884,64,384,1,16
0.5,64.0,384,8,0,63.87,0.0,18.3,0.0,0.0,14.25,14.25,161.77177333831787,64,384,1,16
0.5,64.0,384,8,0,64.0,0.0,18.2,0.0,0.0,16.124,16.124,162.2719738483429,64,384,1,16
0.5,64.0,384,8,0,64.0,0.0,18.2,0.0,0.0,15.548,15.548,162.77552103996277,64,384,1,16
0.5,64.0,384,8,0,64.0,0.0,18.0,0.0,0.0,15.444,15.444,163.27847838401794,64,384,1,16
0.5,64.0,384,8,0,58.0,0.0,17.7,0.0,0.0,14.034,14.034,163.7736620903015,64,384,1,16
0.5,64.0,384,8,0,70.0,0.0,18.1,0.0,0.0,16.42,16.42,164.27118730545044,64,384,1,16
0.5,64.0,384,8,0,64.0,0.0,18.1,0.0,0.0,14.504,14.504,164.77862000465393,64,384,1,16
0.5,64.0,384,8,0,64.0,0.0,17.8,0.0,0.0,16.282,16.282,165.2735197544098,64,384,1,16
0.5,64.0,384,8,0,64.0,0.0,17.9,0.0,0.0,15.596,15.596,165.77462005615234,64,384,1,16
0.5,64.0,384,8,0,64.0,0.0,17.9,0.0,0.0,15.532,15.532,166.2761378288269,64,384,1,16
0.5,64.0,384,8,4,64.0,0.0,17.8,0.0,0.0,15.89,15.89,166.77741527557373,64,384,1,16
0.5,64.0,384,8,0,64.0,0.0,17.9,0.0,0.0,15.164,15.164,167.2745804786682,64,384,1,16
0.5,64.0,384,8,0,64.0,0.0,17.9,0.0,0.0,15.682,15.682,167.77848625183105,64,384,1,16
0.5,64.0,384,8,0,64.0,0.0,18.0,0.0,0.0,14.942,14.942,168.27837347984314,64,384,1,16
0.5,64.0,384,8,0,64.0,0.0,17.8,0.0,0.0,15.008,15.008,168.77733445167542,64,384,1,16
0.5,64.0,384,8,0,64.0,0.0,17.9,0.0,0.0,15.888,15.888,169.27605056762695,64,384,1,16
0.5,64.0,384,8,0,64.0,0.0,17.9,0.0,0.0,15.814,15.814,169.77622604370117,64,384,1,16
0.5,64.0,384,8,0,64.0,0.0,17.8,0.0,0.0,15.704,15.704,170.27460646629333,64,384,1,16
0.5,64.0,384,8,0,60.0,0.0,17.9,0.0,0.0,13.706,13.706,170.77316665649414,64,384,1,16
0.5,64.0,384,8,0,68.0,0.0,17.9,0.0,0.0,13.522,13.522,171.27953243255615,64,384,1,16
0.5,64.0,384,8,0,64.0,0.0,17.8,0.0,0.0,14.606,14.606,171.7771828174591,64,384,1,16
0.5,64.0,384,8,0,64.0,0.0,17.8,0.0,0.0,15.276,15.276,172.2795374393463,64,384,1,16
0.5,64.0,384,8,5,64.0,0.0,17.8,0.0,0.0,14.714,14.714,172.77209615707397,64,384,1,16
0.5,64.0,384,8,0,64.0,0.0,17.6,0.0,0.0,16.216,16.216,173.27434968948364,64,384,1,16
0.5,64.0,384,8,0,64.0,0.0,17.7,0.0,0.0,14.776,14.776,173.77543592453003,64,384,1,16
0.5,64.0,384,8,0,64.0,0.0,17.7,0.0,0.0,14.33,14.33,174.2733278274536,64,384,1,16
0.5,64.0,384,8,0,64.0,0.0,17.7,0.0,0.0,15.936,15.936,174.77709794044495,64,384,1,16
0.5,64.0,384,8,0,64.0,0.0,17.6,0.0,0.0,14.71,14.71,175.27257013320923,64,384,1,16
0.5,64.0,384,8,0,64.0,0.0,17.7,0.0,0.0,16.428,16.428,175.77371430397034,64,384,1,16
0.5,64.0,384,8,0,64.0,0.0,17.7,0.0,0.0,14.934,14.934,176.27222514152527,64,384,1,16
0.5,64.0,384,8,0,64.0,0.0,17.8,0.0,0.0,16.114,16.114,176.7767095565796,64,384,1,16
0.5,64.0,384,8,0,64.0,0.0,17.8,0.0,0.0,15.86,15.86,177.27279353141785,64,384,1,16
0.5,64.0,384,8,0,64.0,0.0,17.7,0.0,0.0,16.278,16.278,177.7747187614441,64,384,1,16
0.5,64.0,384,8,0,64.0,0.0,17.8,0.0,0.0,14.214,14.214,178.2737307548523,64,384,1,16
0.5,64.0,384,8,6,64.0,0.0,17.7,0.0,0.0,15.914,15.914,178.77584624290466,64,384,1,16
0.5,64.0,384,8,0,64.0,0.0,17.9,0.0,0.0,16.476,16.476,179.2736678123474,64,384,1,16
0.5,64.0,384,8,0,64.0,0.0,17.8,0.0,0.0,14.64,14.64,179.7736210823059,64,384,1,16
0.5,64.0,384,8,0,64.0,0.0,17.7,0.0,0.0,16.254,16.254,180.27661633491516,64,384,1,16
0.5,64.0,384,8,0,64.0,0.0,17.8,0.0,0.0,16.512,16.512,180.77373576164246,64,384,1,16
0.5,64.0,384,8,0,64.0,0.0,18.2,0.0,0.0,15.894,15.894,181.27719640731812,64,384,1,16
0.5,64.0,384,8,0,64.0,0.0,18.1,0.0,0.0,15.622,15.622,181.7735538482666,64,384,1,16
0.5,64.0,384,8,0,64.0,0.0,18.0,0.0,0.0,15.42,15.42,182.2728168964386,64,384,1,16
0.5,64.0,384,8,0,64.0,0.0,18.1,0.0,0.0,16.51,16.51,182.77440094947815,64,384,1,16
0.5,64.0,384,8,0,64.0,0.0,18.2,0.0,0.0,15.682,15.682,183.27616620063782,64,384,1,16
0.5,64.0,384,8,0,64.0,0.0,18.0,0.0,0.0,16.46,16.46,183.77387857437134,64,384,1,16
0.5,64.0,384,8,0,64.0,0.0,17.8,0.0,0.0,16.174,16.174,184.2742006778717,64,384,1,16
0.5,64.0,384,8,7,64.0,0.0,17.9,0.0,0.0,13.352,13.352,184.77216744422913,64,384,1,16
0.5,64.0,384,8,0,64.0,0.0,17.7,0.0,0.0,16.744,16.744,185.27600288391113,64,384,1,16
0.5,64.0,384,8,0,64.0,0.0,17.8,0.0,0.0,15.916,15.916,185.77373147010803,64,384,1,16
0.5,64.0,384,8,0,64.0,0.0,18.0,0.0,0.0,15.526,15.526,186.27949213981628,64,384,1,16
0.5,64.0,384,8,0,64.0,0.0,17.8,0.0,0.0,16.128,16.128,186.7748625278473,64,384,1,16
0.5,64.0,384,8,0,64.0,0.0,17.7,0.0,0.0,14.322,14.322,187.27548933029175,64,384,1,16
0.5,64.0,384,8,0,64.0,0.0,18.0,0.0,0.0,16.14,16.14,187.7758331298828,64,384,1,16
0.5,64.0,384,8,0,64.0,0.0,17.7,0.0,0.0,14.874,14.874,188.27231764793396,64,384,1,16
0.5,64.0,384,8,0,64.0,0.0,17.8,0.0,0.0,16.436,16.436,188.77206540107727,64,384,1,16
0.5,64.0,384,8,0,64.0,0.0,17.9,0.0,0.0,15.84,15.84,189.27443432807922,64,384,1,16
0.5,64.0,384,8,0,64.0,0.0,17.7,0.0,0.0,15.932,15.932,189.77264738082886,64,384,1,16
0.5,64.0,384,8,0,64.0,0.0,17.8,0.0,0.0,15.94,15.94,190.27384519577026,64,384,1,16
10.0,64.0,384,8,8,64.01,0.8002,95.9,942.912,0.35,962.292,1905.554,200.27300429344177,64,384,1,16
0.5,64.0,384,8,0,63.87,0.0,17.7,0.0,0.0,16.589,16.589,200.7770426273346,64,384,1,16
0.5,64.0,384,8,0,64.0,0.0,17.8,0.0,0.0,14.512,14.512,201.27278995513916,64,384,1,16
0.5,64.0,384,8,0,64.0,0.0,18.2,0.0,0.0,15.346,15.346,201.77478528022766,64,384,1,16
0.5,64.0,384,8,0,64.0,0.0,18.0,0.0,0.0,15.578,15.578,202.2735950946808,64,384,1,16
0.5,64.0,384,8,2,64.0,0.0,18.0,0.0,0.0,15.208,15.208,202.77362060546875,64,384,1,16
0.5,64.0,384,8,0,64.0,0.0,18.0,0.0,0.0,15.88,15.88,203.2759141921997,64,384,1,16
0.5,64.0,384,8,0,64.0,0.0,18.2,0.0,0.0,15.312,15.312,203.77262592315674,64,384,1,16
0.5,64.0,384,8,0,64.0,0.0,18.0,0.0,0.0,16.598,16.598,204.27313923835754,64,384,1,16
0.5,64.0,384,8,0,64.0,0.0,17.9,0.0,0.0,15.772,15.772,204.77469110488892,64,384,1,16
0.5,64.0,384,8,0,64.0,0.0,17.7,0.0,0.0,16.28,16.28,205.27373147010803,64,384,1,16
0.5,64.0,384,8,0,64.0,0.0,17.8,0.0,0.0,16.104,16.104,205.77389788627625,64,384,1,16
0.5,64.0,384,8,0,64.0,0.0,17.9,0.0,0.0,15.306,15.306,206.27400851249695,64,384,1,16
0.5,64.0,384,8,0,64.0,0.0,17.8,0.0,0.0,17.064,17.064,206.77376079559326,64,384,1,16
0.5,64.0,384,8,0,64.0,0.0,17.8,0.0,0.0,15.988,15.988,207.2744562625885,64,384,1,16
0.5,64.0,384,8,0,64.0,0.0,17.8,0.0,0.0,16.33,16.33,207.7730131149292,64,384,1,16
0.5,64.0,384,8,0,64.0,0.0,17.8,0.0,0.0,16.324,16.324,208.277245759964,64,384,1,16
0.5,64.0,384,8,3,64.0,0.0,17.8,0.0,0.0,14.112,14.112,208.77273273468018,64,384,1,16
0.5,64.0,384,8,0,64.0,0.0,17.8,0.0,0.0,16.54,16.54,209.2733645439148,64,384,1,16
0.5,64.0,384,8,0,64.0,0.0,17.8,0.0,0.0,16.254,16.254,209.77533078193665,64,384,1,16
0.5,64.0,384,8,0,64.0,0.0,17.9,0.0,0.0,16.118,16.118,210.27452659606934,64,384,1,16
0.5,64.0,384,8,0,64.0,0.0,17.8,0.0,0.0,15.462,15.462,210.7730417251587,64,384,1,16
0.5,64.0,384,8,0,64.0,0.0,17.8,0.0,0.0,14.466,14.466,211.27281594276428,64,384,1,16
0.5,64.0,384,8,0,64.0,0.0,17.8,0.0,0.0,14.988,14.988,211.77346420288086,64,384,1,16
0.5,64.0,384,8,0,64.0,0.0,17.8,0.0,0.0,15.008,15.008,212.27357602119446,64,384,1,16
0.5,64.0,384,8,0,64.0,0.0,17.8,0.0,0.0,14.868,14.868,212.7728168964386,64,384,1,16
0.5,64.0,384,8,0,64.0,0.0,17.8,0.0,0.0,16.87,16.87,213.27578926086426,64,384,1,16
0.5,64.0,384,8,0,64.0,0.0,17.8,0.0,0.0,15.832,15.832,213.77621293067932,64,384,1,16
0.5,64.0,384,8,0,64.0,0.0,17.8,0.0,0.0,16.724,16.724,214.2750129699707,64,384,1,16
0.5,64.0,384,8,4,64.0,0.0,17.8,0.0,0.0,14.52,14.52,214.7733986377716,64,384,1,16
0.5,64.0,384,8,0,64.0,0.0,17.9,0.0,0.0,16.076,16.076,215.27645564079285,64,384,1,16
0.5,64.0,384,8,0,64.0,0.0,17.8,0.0,0.0,15.416,15.416,215.77276158332825,64,384,1,16
0.5,64.0,384,8,0,64.0,0.0,17.8,0.0,0.0,15.97,15.97,216.27564883232117,64,384,1,16
0.5,64.0,384,8,0,64.0,0.0,17.7,0.0,0.0,16.084,16.084,216.77265048027039,64,384,1,16
0.5,64.0,384,8,0,64.0,0.0,17.8,0.0,0.0,15.264,15.264,217.27507734298706,64,384,1,16
0.5,64.0,384,8,0,64.0,0.0,17.8,0.0,0.0,16.99,16.99,217.77551364898682,64,384,1,16
0.5,64.0,384,8,0,64.0,0.0,17.9,0.0,0.0,16.302,16.302,218.27490425109863,64,384,1,16
0.5,64.0,384,8,0,64.0,0.0,17.7,0.0,0.0,16.11,16.11,218.7752766609192,64,384,1,16
0.5,64.0,384,8,0,64.0,0.0,17.8,0.0,0.0,15.958,15.958,219.2727518081665,64,384,1,16
0.5,64.0,384,8,0,64.0,0.0,17.8,0.0,0.0,14.92,14.92,219.7749924659729,64,384,1,16
0.5,64.0,384,8,0,64.0,0.0,17.8,0.0,0.0,14.84,14.84,220.27431917190552,64,384,1,16
0.5,64.0,384,8,5,64.0,0.0,17.8,0.0,0.0,14.102,14.102,220.77319598197937,64,384,1,16
0.5,64.0,384,8,0,63.87,0.0,17.8,0.0,0.0,16.265,16.265,221.27690529823303,64,384,1,16
0.5,64.0,384,8,0,64.0,0.0,17.7,0.0,0.0,16.22,16.22,221.77617120742798,64,384,1,16
0.5,64.0,384,8,0,64.0,0.0,17.9,0.0,0.0,16.058,16.058,222.27413845062256,64,384,1,16
0.5,64.0,384,8,0,64.0,0.0,18.0,0.0,0.0,16.412,16.412,222.7730987071991,64,384,1,16
0.5,64.0,384,8,0,64.0,0.0,18.0,0.0,0.0,15.734,15.734,223.27464365959167,64,384,1,16
0.5,64.0,384,8,0,64.0,0.0,18.1,0.0,0.0,15.928,15.928,223.77517652511597,64,384,1,16
0.5,64.0,384,8,0,64.0,0.0,18.0,0.0,0.0,16.264,16.264,224.27445483207703,64,384,1,16
0.5,64.0,384,8,0,64.0,0.0,18.0,0.0,0.0,15.874,15.874,224.7749683856964,64,384,1,16
0.5,64.0,384,8,0,64.0,0.0,17.7,0.0,0.0,14.222,14.222,225.27377319335938,64,384,1,16
0.5,64.0,384,8,0,64.0,0.0,17.8,0.0,0.0,15.094,15.094,225.77371764183044,64,384,1,16
0.5,64.0,384,8,0,64.0,0.0,17.8,0.0,0.0,14.77,14.77,226.27333116531372,64,384,1,16
0.5,64.0,384,8,6,64.0,0.0,17.7,0.0,0.0,14.52,14.52,226.77441239356995,64,384,1,16
0.5,64.0,384,8,0,64.0,0.0,18.0,0.0,0.0,15.802,15.802,227.27448225021362,64,384,1,16
0.5,64.0,384,8,0,64.0,0.0,17.8,0.0,0.0,16.45,16.45,227.7754065990448,64,384,1,16
0.5,64.0,384,8,0,64.0,0.0,17.7,0.0,0.0,16.604,16.604,228.27562260627747,64,384,1,16
0.5,64.0,384,8,0,64.0,0.0,17.8,0.0,0.0,17.094,17.094,228.7744710445404,64,384,1,16
0.5,64.0,384,8,0,64.0,0.0,17.8,0.0,0.0,15.824,15.824,229.27526021003723,64,384,1,16
0.5,64.0,384,8,0,64.0,0.0,17.9,0.0,0.0,16.112,16.112,229.7740457057953,64,384,1,16
0.5,64.0,384,8,0,64.0,0.0,17.8,0.0,0.0,16.694,16.694,230.27471137046814,64,384,1,16
0.5,64.0,384,8,0,64.0,0.0,17.8,0.0,0.0,16.312,16.312,230.77540802955627,64,384,1,16
0.5,64.0,384,8,0,64.0,0.0,17.8,0.0,0.0,14.238,14.238,231.2730586528778,64,384,1,16
0.5,64.0,384,8,0,64.0,0.0,17.8,0.0,0.0,16.412,16.412,231.77478003501892,64,384,1,16
0.5,64.0,384,8,0,64.0,0.0,17.8,0.0,0.0,13.742,13.742,232.27312469482422,64,384,1,16
0.5,64.0,384,8,7,64.0,0.0,17.7,0.0,0.0,13.952,13.952,232.77325320243835,64,384,1,16
0.5,64.0,384,8,0,64.0,0.0,17.8,0.0,0.0,14.39,14.39,233.2767767906189,64,384,1,16
0.5,64.0,384,8,0,64.0,0.0,17.8,0.0,0.0,16.268,16.268,233.7736427783966,64,384,1,16
0.5,64.0,384,8,0,64.0,0.0,17.8,0.0,0.0,14.842,14.842,234.2729353904724,64,384,1,16
0.5,64.0,384,8,0,64.0,0.0,17.7,0.0,0.0,16.904,16.904,234.77442264556885,64,384,1,16
0.5,64.0,384,8,0,64.0,0.0,17.8,0.0,0.0,16.088,16.088,235.27378487586975,64,384,1,16
0.5,64.0,384,8,0,64.0,0.0,17.7,0.0,0.0,16.108,16.108,235.77470707893372,64,384,1,16
0.5,64.0,384,8,0,64.0,0.0,17.8,0.0,0.0,15.742,15.742,236.2735459804535,64,384,1,16
0.5,64.0,384,8,0,64.0,0.0,17.9,0.0,0.0,16.4,16.4,236.7748990058899,64,384,1,16
0.5,64.0,384,8,0,32.0,0.0,17.0,0.0,0.0,6.262,6.262,237.27404928207397,64,384,1,16
0.5,64.0,384,8,0,96.0,0.0,18.6,0.0,0.0,18.832,18.832,237.77575016021729,64,384,1,16
0.5,64.0,384,8,0,64.0,0.0,17.8,0.0,0.0,14.43,14.43,238.27493000030518,64,384,1,16
9.99,64.0,384,8,8,62.44,0.8006,95.9,943.277,0.345,962.208,1905.83,248.26484942436218,64,384,1,16
0.5,64.0,384,8,0,64.0,0.0,17.8,0.0,0.0,14.124,14.124,248.76617622375488,64,384,1,16
0.5,64.0,384,8,0,64.0,0.0,17.7,0.0,0.0,13.05,13.05,249.26786184310913,64,384,1,16
0.5,64.0,384,8,0,64.0,0.0,17.7,0.0,0.0,14.434,14.434,249.76749086380005,64,384,1,16
0.5,64.0,384,8,0,64.0,0.0,17.7,0.0,0.0,14.288,14.288,250.26729321479797,64,384,1,16
0.5,64.0,384,8,0,64.0,0.0,17.8,0.0,0.0,14.236,14.236,250.76590824127197,64,384,1,16
0.5,64.0,384,8,2,64.0,0.0,17.7,0.0,0.0,13.18,13.18,251.26722860336304,64,384,1,16
0.5,64.0,384,8,0,64.0,0.0,17.7,0.0,0.0,13.8,13.8,251.76501488685608,64,384,1,16
0.5,64.0,384,8,0,64.0,0.0,17.8,0.0,0.0,14.632,14.632,252.265949010849,64,384,1,16
0.5,64.0,384,8,0,64.0,0.0,17.7,0.0,0.0,12.662,12.662,252.7666130065918,64,384,1,16
0.5,64.0,384,8,0,64.0,0.0,17.7,0.0,0.0,14.388,14.388,253.26606035232544,64,384,1,16
0.5,64.0,384,8,0,64.0,0.0,17.7,0.0,0.0,14.458,14.458,253.76683473587036,64,384,1,16
0.5,64.0,384,8,0,64.0,0.0,17.9,0.0,0.0,13.152,13.152,254.26615834236145,64,384,1,16
0.5,64.0,384,8,0,64.0,0.0,17.7,0.0,0.0,14.308,14.308,254.76783180236816,64,384,1,16
0.5,64.0,384,8,0,64.0,0.0,17.7,0.0,0.0,12.614,12.614,255.26680493354797,64,384,1,16
0.5,64.0,384,8,0,64.0,0.0,17.8,0.0,0.0,12.58,12.58,255.7672097682953,64,384,1,16
0.5,64.0,384,8,0,64.0,0.0,17.7,0.0,0.0,14.376,14.376,256.2697985172272,64,384,1,16
0.5,64.0,384,8,0,64.0,0.0,17.8,0.0,0.0,13.506,13.506,256.76440358161926,64,384,1,16
0.5,64.0,384,8,3,64.0,0.0,17.7,0.0,0.0,14.552,14.552,257.2670090198517,64,384,1,16
0.5,64.0,384,8,0,64.0,0.0,17.8,0.0,0.0,14.438,14.438,257.7658522129059,64,384,1,16
0.5,64.0,384,8,0,64.0,0.0,17.7,0.0,0.0,14.47,14.47,258.26532793045044,64,384,1,16
0.5,64.0,384,8,0,64.0,0.0,17.8,0.0,0.0,14.21,14.21,258.76678252220154,64,384,1,16
0.5,64.0,384,8,0,64.0,0.0,17.7,0.0,0.0,14.326,14.326,259.26565980911255,64,384,1,16
0.5,64.0,384,8,0,64.0,0.0,17.7,0.0,0.0,14.698,14.698,259.7661921977997,64,384,1,16
0.5,64.0,384,8,0,64.0,0.0,17.8,0.0,0.0,14.608,14.608,260.26558232307434,64,384,1,16
0.5,64.0,384,8,0,64.0,0.0,17.7,0.0,0.0,14.294,14.294,260.76627016067505,64,384,1,16
0.5,64.0,384,8,0,64.0,0.0,17.8,0.0,0.0,14.092,14.092,261.26824426651,64,384,1,16
0.5,64.0,384,8,0,64.0,0.0,18.0,0.0,0.0,13.234,13.234,261.7675642967224,64,384,1,16
0.5,64.0,384,8,0,64.0,0.0,18.0,0.0,0.0,13.238,13.238,262.2683901786804,64,384,1,16
0.5,64.0,384,8,0,64.0,0.0,18.0,0.0,0.0,13.614,13.614,262.76788306236267,64,384,1,16
0.5,64.0,384,8,4,64.0,0.0,17.9,0.0,0.0,13.668,13.668,263.26594638824463,64,384,1,16
0.5,64.0,384,8,0,64.0,0.0,18.1,0.0,0.0,14.552,14.552,263.76562762260437,64,384,1,16
0.5,64.0,384,8,0,64.0,0.0,18.0,0.0,0.0,14.768,14.768,264.266286611557,64,384,1,16
0.5,64.0,384,8,0,64.0,0.0,18.1,0.0,0.0,14.092,14.092,264.7660422325134,64,384,1,16
0.5,64.0,384,8,0,64.0,0.0,18.0,0.0,0.0,14.594,14.594,265.2653341293335,64,384,1,16
0.5,64.0,384,8,0,64.0,0.0,18.0,0.0,0.0,14.896,14.896,265.7670052051544,64,384,1,16
0.5,64.0,384,8,0,64.0,0.0,17.9,0.0,0.0,14.426,14.426,266.26761960983276,64,384,1,16
0.5,64.0,384,8,0,64.0,0.0,17.6,0.0,0.0,14.72,14.72,266.7675721645355,64,384,1,16
0.5,64.0,384,8,0,64.0,0.0,17.7,0.0,0.0,14.504,14.504,267.265189409256,64,384,1,16
0.5,64.0,384,8,0,64.0,0.0,17.7,0.0,0.0,14.514,14.514,267.7673935890198,64,384,1,16
0.5,64.0,384,8,0,64.0,0.0,17.8,0.0,0.0,14.454,14.454,268.2650640010834,64,384,1,16
0.5,64.0,384,8,0,64.0,0.0,17.8,0.0,0.0,14.558,14.558,268.7665755748749,64,384,1,16
0.5,64.0,384,8,5,64.0,0.0,17.8,0.0,0.0,14.268,14.268,269.265065908432,64,384,1,16
0.5,64.0,384,8,0,64.0,0.0,17.8,0.0,0.0,14.078,14.078,269.7654905319214,64,384,1,16
0.5,64.0,384,8,0,64.0,0.0,17.8,0.0,0.0,14.228,14.228,270.2635979652405,64,384,1,16
0.5,64.0,384,8,0,64.0,0.0,17.8,0.0,0.0,15.21,15.21,270.76688599586487,64,384,1,16
0.5,64.0,384,8,0,64.0,0.0,17.9,0.0,0.0,13.88,13.88,271.26831102371216,64,384,1,16
0.5,64.0,384,8,0,64.0,0.0,17.8,0.0,0.0,14.902,14.902,271.76839089393616,64,384,1,16
0.5,64.0,384,8,0,64.0,0.0,18.0,0.0,0.0,13.938,13.938,272.26722741127014,64,384,1,16
0.5,64.0,384,8,0,64.0,0.0,17.9,0.0,0.0,13.592,13.592,272.7656726837158,64,384,1,16
0.5,64.0,384,8,0,64.0,0.0,17.7,0.0,0.0,14.602,14.602,273.2675166130066,64,384,1,16
0.5,64.0,384,8,0,64.0,0.0,17.9,0.0,0.0,13.506,13.506,273.76807498931885,64,384,1,16
0.5,64.0,384,8,0,64.0,0.0,17.9,0.0,0.0,13.944,13.944,274.2656891345978,64,384,1,16
0.5,64.0,384,8,0,64.0,0.0,17.9,0.0,0.0,13.702,13.702,274.77226209640503,64,384,1,16
0.5,64.0,384,8,6,64.0,0.0,17.9,0.0,0.0,14.246,14.246,275.2664563655853,64,384,1,16
0.5,64.0,384,8,0,64.0,0.0,17.9,0.0,0.0,13.688,13.688,275.7673513889313,64,384,1,16
0.5,64.0,384,8,0,64.0,0.0,17.8,0.0,0.0,14.234,14.234,276.26643085479736,64,384,1,16
0.5,64.0,384,8,0,64.0,0.0,17.8,0.0,0.0,13.53,13.53,276.7662670612335,64,384,1,16
0.5,64.0,384,8,0,64.0,0.0,17.8,0.0,0.0,14.374,14.374,277.2629351615906,64,384,1,16
0.5,64.0,384,8,0,64.0,0.0,17.9,0.0,0.0,12.708,12.708,277.7675657272339,64,384,1,16
0.5,64.0,384,8,0,64.0,0.0,18.0,0.0,0.0,13.21,13.21,278.26681184768677,64,384,1,16
0.5,64.0,384,8,0,64.0,0.0,17.9,0.0,0.0,13.952,13.952,278.76758337020874,64,384,1,16
0.5,64.0,384,8,0,64.0,0.0,17.8,0.0,0.0,14.038,14.038,279.26642394065857,64,384,1,16
0.5,64.0,384,8,0,64.0,0.0,17.8,0.0,0.0,13.786,13.786,279.76789259910583,64,384,1,16
0.5,64.0,384,8,0,64.0,0.0,17.8,0.0,0.0,14.26,14.26,280.2666425704956,64,384,1,16
0.5,64.0,384,8,0,64.0,0.0,17.8,0.0,0.0,14.634,14.634,280.7682800292969,64,384,1,16
0.5,64.0,384,8,7,64.0,0.0,17.9,0.0,0.0,14.142,14.142,281.26572036743164,64,384,1,16
0.5,64.0,384,8,0,64.0,0.0,17.8,0.0,0.0,13.406,13.406,281.767865896225,64,384,1,16
0.5,64.0,384,8,0,64.0,0.0,18.0,0.0,0.0,13.048,13.048,282.26620149612427,64,384,1,16
0.5,64.0,384,8,0,64.0,0.0,17.8,0.0,0.0,14.22,14.22,282.7672734260559,64,384,1,16
0.5,64.0,384,8,0,64.0,0.0,17.8,0.0,0.0,14.174,14.174,283.26747608184814,64,384,1,16
0.5,64.0,384,8,0,64.0,0.0,17.7,0.0,0.0,14.714,14.714,283.7679569721222,64,384,1,16
0.5,64.0,384,8,0,64.0,0.0,18.3,0.0,0.0,13.278,13.278,284.26902770996094,64,384,1,16
0.5,64.0,384,8,0,64.0,0.0,18.1,0.0,0.0,14.096,14.096,284.7686367034912,64,384,1,16
0.5,64.0,384,8,0,64.0,0.0,18.0,0.0,0.0,14.35,14.35,285.26886224746704,64,384,1,16
0.5,64.0,384,8,0,64.0,0.0,18.2,0.0,0.0,14.096,14.096,285.76840114593506,64,384,1,16
0.5,64.0,384,8,0,64.0,0.0,18.2,0.0,0.0,13.63,13.63,286.26926255226135,64,384,1,16
0.5,64.0,384,8,0,64.0,0.0,18.1,0.0,0.0,14.604,14.604,286.7694478034973,64,384,1,16
9.52,64.0,384,8,8,65.58,0.8408,100.0,990.724,0.358,1010.634,2001.715,296.27767157554626,64,384,1,16
0.5,64.0,384,8,0,64.0,0.0,17.8,0.0,0.0,16.258,16.258,296.7835223674774,64,384,1,16
0.5,64.0,384,8,0,64.0,0.0,17.8,0.0,0.0,14.232,14.232,297.2827854156494,64,384,1,16
0.5,64.0,384,8,0,64.0,0.0,17.8,0.0,0.0,16.978,16.978,297.77555227279663,64,384,1,16
0.5,64.0,384,8,0,64.0,0.0,17.8,0.0,0.0,14.246,14.246,298.2756621837616,64,384,1,16
0.5,64.0,384,8,2,64.0,0.0,17.8,0.0,0.0,15.012,15.012,298.7755296230316,64,384,1,16
0.5,64.0,384,8,0,64.0,0.0,17.7,0.0,0.0,15.814,15.814,299.2753448486328,64,384,1,16
0.5,64.0,384,8,0,64.0,0.0,17.8,0.0,0.0,15.816,15.816,299.78338503837585,64,384,1,16
0.5,64.0,384,8,0,64.0,0.0,17.8,0.0,0.0,16.354,16.354,300.2757525444031,64,384,1,16
0.5,64.0,384,8,0,64.0,0.0,17.8,0.0,0.0,16.39,16.39,300.7839825153351,64,384,1,16
0.5,64.0,384,8,0,64.0,0.0,17.8,0.0,0.0,15.622,15.622,301.2837595939636,64,384,1,16
0.5,64.0,384,8,0,64.0,0.0,17.8,0.0,0.0,16.072,16.072,301.77612257003784,64,384,1,16
0.5,64.0,384,8,0,64.0,0.0,17.7,0.0,0.0,14.838,14.838,302.2826015949249,64,384,1,16
0.5,64.0,384,8,0,64.0,0.0,17.8,0.0,0.0,16.354,16.354,302.78302550315857,64,384,1,16
0.5,64.0,384,8,0,64.0,0.0,17.8,0.0,0.0,16.392,16.392,303.2837438583374,64,384,1,16
0.5,64.0,384,8,0,64.0,0.0,17.8,0.0,0.0,16.85,16.85,303.7761723995209,64,384,1,16
0.5,64.0,384,8,0,64.0,0.0,17.6,0.0,0.0,16.03,16.03,304.2764070034027,64,384,1,16
0.5,64.0,384,8,3,64.0,0.0,17.9,0.0,0.0,16.256,16.256,304.77511763572693,64,384,1,16
0.5,64.0,384,8,0,64.0,0.0,18.0,0.0,0.0,15.576,15.576,305.27520751953125,64,384,1,16
0.5,64.0,384,8,0,64.0,0.0,18.1,0.0,0.0,14.944,14.944,305.77510118484497,64,384,1,16
0.5,64.0,384,8,0,64.0,0.0,18.1,0.0,0.0,16.424,16.424,306.2833592891693,64,384,1,16
0.5,64.0,384,8,0,64.0,0.0,18.2,0.0,0.0,16.35,16.35,306.78389406204224,64,384,1,16
0.5,64.0,384,8,0,64.0,0.0,18.1,0.0,0.0,13.89,13.89,307.2823917865753,64,384,1,16
0.5,64.0,384,8,0,64.0,0.0,17.8,0.0,0.0,16.364,16.364,307.7755801677704,64,384,1,16
0.5,64.0,384,8,0,64.0,0.0,17.8,0.0,0.0,14.718,14.718,308.2832372188568,64,384,1,16
0.5,64.0,384,8,0,64.0,0.0,17.8,0.0,0.0,16.914,16.914,308.7761187553406,64,384,1,16
0.5,64.0,384,8,0,64.0,0.0,17.8,0.0,0.0,16.192,16.192,309.27495980262756,64,384,1,16
0.5,64.0,384,8,0,64.0,0.0,17.8,0.0,0.0,15.266,15.266,309.78371000289917,64,384,1,16
0.5,64.0,384,8,0,64.0,0.0,17.8,0.0,0.0,14.368,14.368,310.28242540359497,64,384,1,16
0.5,64.0,384,8,4,64.0,0.0,17.8,0.0,0.0,16.28,16.28,310.7755284309387,64,384,1,16
0.5,64.0,384,8,0,64.0,0.0,17.9,0.0,0.0,16.122,16.122,311.2760763168335,64,384,1,16
0.5,64.0,384,8,0,64.0,0.0,17.9,0.0,0.0,16.44,16.44,311.77726340293884,64,384,1,16
0.5,64.0,384,8,0,64.0,0.0,17.8,0.0,0.0,15.958,15.958,312.283549785614,64,384,1,16
0.5,64.0,384,8,0,0.0,0.0,16.3,0.0,0.0,0.0,0.0,312.7833569049835,64,384,1,16
0.5,64.0,384,8,0,0.0,0.0,16.3,0.0,0.0,0.0,0.0,313.2843351364136,64,384,1,16
