dt,Fs,HOP,BATCH,pend_peak,samp,inf,active,infer_ms_s,fill_ms_s,rx_ms_s,eproxy_ms_s,t_sec,fs_run,hop_run,batch_run,burst_run
0.5,64.0,384,8,0,54.0,0.0,18.0,0.0,0.0,11.134,11.134,0.43360280990600586,64,384,1,1
0.5,64.0,384,8,0,64.0,0.0,18.3,0.0,0.0,13.304,13.304,0.9318432807922363,64,384,1,1
0.5,64.0,384,8,0,64.0,0.0,18.3,0.0,0.0,13.208,13.208,1.4317317008972168,64,384,1,1
0.5,64.0,384,8,0,64.0,0.0,18.4,0.0,0.0,13.26,13.26,1.9312996864318848,64,384,1,1
0.5,64.0,384,8,0,64.0,0.0,18.3,0.0,0.0,13.246,13.246,2.4313347339630127,64,384,1,1
0.5,64.0,384,8,0,64.0,0.0,18.3,0.0,0.0,13.324,13.324,2.931537389755249,64,384,1,1
0.5,64.0,384,8,0,64.0,0.0,18.4,0.0,0.0,13.306,13.306,3.4315145015716553,64,384,1,1
0.5,64.0,384,8,0,64.0,0.0,18.3,0.0,0.0,13.242,13.242,3.932431936264038,64,384,1,1
0.5,64.0,384,8,0,64.0,0.0,18.3,0.0,0.0,13.214,13.214,4.431445121765137,64,384,1,1
0.5,64.0,384,8,0,64.0,0.0,18.3,0.0,0.0,13.26,13.26,4.93167781829834,64,384,1,1
0.5,64.0,384,8,0,64.0,0.0,18.3,0.0,0.0,13.204,13.204,5.423960208892822,64,384,1,1
0.5,64.0,384,8,0,64.0,0.0,18.2,0.0,0.0,13.208,13.208,5.931303262710571,64,384,1,1
0.5,64.0,384,8,0,64.0,0.0,18.6,0.0,0.0,13.328,13.328,6.431183099746704,64,384,1,1
0.5,64.0,384,8,0,64.0,0.0,18.6,0.0,0.0,13.19,13.19,6.931595802307129,64,384,1,1
0.5,64.0,384,8,0,64.0,0.0,18.6,0.0,0.0,13.254,13.254,7.431384325027466,64,384,1,1
0.5,64.0,384,8,0,64.0,0.0,18.6,0.0,0.0,13.526,13.526,7.931917667388916,64,384,1,1
0.5,64.0,384,8,1,64.0,0.0,18.5,0.0,0.0,14.154,14.154,8.431977987289429,64,384,1,1
0.5,64.0,384,8,0,64.0,0.0,18.5,0.0,0.0,14.212,14.212,8.931252717971802,64,384,1,1
0.5,64.0,384,8,0,64.0,0.0,18.3,0.0,0.0,14.288,14.288,9.431827783584595,64,384,1,1
0.5,64.0,384,8,0,64.0,0.0,18.4,0.0,0.0,14.282,14.282,9.931463718414307,64,384,1,1
0.5,64.0,384,8,0,64.0,0.0,18.3,0.0,0.0,14.394,14.394,10.431612014770508,64,384,1,1
0.5,64.0,384,8,0,64.0,0.0,18.3,0.0,0.0,14.34,14.34,10.932278871536255,64,384,1,1
0.5,64.0,384,8,0,64.0,0.0,18.3,0.0,0.0,14.35,14.35,11.431390285491943,64,384,1,1
0.5,64.0,384,8,0,64.0,0.0,18.4,0.0,0.0,14.154,14.154,11.931537389755249,64,384,1,1
0.5,64.0,384,8,2,64.0,0.0,18.3,0.0,0.0,13.544,13.544,12.43137001991272,64,384,1,1
0.5,64.0,384,8,0,64.0,0.0,18.2,0.0,0.0,13.426,13.426,12.932315587997437,64,384,1,1
0.5,64.0,384,8,0,64.0,0.0,18.4,0.0,0.0,13.44,13.44,13.431517124176025,64,384,1,1
0.5,64.0,384,8,0,64.0,0.0,18.3,0.0,0.0,13.31,13.31,13.932021141052246,64,384,1,1
0.5,64.0,384,8,0,64.0,0.0,18.3,0.0,0.0,13.242,13.242,14.431717872619629,64,384,1,1
0.5,64.0,384,8,0,64.0,0.0,18.3,0.0,0.0,13.366,13.366,14.931636095046997,64,384,1,1
0.5,64.0,384,8,0,64.0,0.0,18.3,0.0,0.0,13.276,13.276,15.432070255279541,64,384,1,1
0.5,64.0,384,8,0,64.0,0.0,18.3,0.0,0.0,13.32,13.32,15.93095088005066,64,384,1,1
0.5,64.0,384,8,0,64.0,0.0,18.4,0.0,0.0,13.252,13.252,16.432167053222656,64,384,1,1
0.5,64.0,384,8,0,64.0,0.0,18.3,0.0,0.0,13.338,13.338,16.931213855743408,64,384,1,1
0.5,64.0,384,8,0,64.0,0.0,18.3,0.0,0.0,13.274,13.274,17.43164300918579,64,384,1,1
0.5,64.0,384,8,0,64.0,0.0,18.3,0.0,0.0,13.272,13.272,17.931904077529907,64,384,1,1
0.5,64.0,384,8,3,64.0,0.0,18.3,0.0,0.0,13.242,13.242,18.431867837905884,64,384,1,1
0.5,64.0,384,8,0,64.0,0.0,18.4,0.0,0.0,13.378,13.378,18.931567430496216,64,384,1,1
0.5,64.0,384,8,0,64.0,0.0,18.3,0.0,0.0,13.332,13.332,19.430997610092163,64,384,1,1
0.5,64.0,384,8,0,64.0,0.0,18.3,0.0,0.0,13.366,13.366,19.93152904510498,64,384,1,1
0.5,64.0,384,8,0,64.0,0.0,18.3,0.0,0.0,13.244,13.244,20.431785106658936,64,384,1,1
0.5,64.0,384,8,0,64.0,0.0,18.4,0.0,0.0,13.322,13.322,20.93139934539795,64,384,1,1
0.5,64.0,384,8,0,64.0,0.0,18.4,0.0,0.0,13.31,13.31,21.43203067779541,64,384,1,1
0.5,64.0,384,8,0,64.0,0.0,18.3,0.0,0.0,13.304,13.304,21.93146014213562,64,384,1,1
0.5,64.0,384,8,0,64.0,0.0,18.4,0.0,0.0,13.25,13.25,22.431676626205444,64,384,1,1
0.5,64.0,384,8,0,64.0,0.0,18.3,0.0,0.0,13.256,13.256,22.931268453598022,64,384,1,1
0.5,64.0,384,8,0,64.0,0.0,18.3,0.0,0.0,13.288,13.288,23.4314546585083,64,384,1,1
0.5,64.0,384,8,0,64.0,0.0,18.3,0.0,0.0,13.382,13.382,23.931406021118164,64,384,1,1
0.5,64.0,384,8,4,64.0,0.0,18.3,0.0,0.0,13.41,13.41,24.43184781074524,64,384,1,1
0.5,64.0,384,8,0,64.0,0.0,18.3,0.0,0.0,13.358,13.358,24.931353092193604,64,384,1,1
0.5,64.0,384,8,0,64.0,0.0,18.4,0.0,0.0,13.34,13.34,25.432072162628174,64,384,1,1
0.5,64.0,384,8,0,64.0,0.0,18.3,0.0,0.0,13.402,13.402,25.93115472793579,64,384,1,1
0.5,64.0,384,8,0,64.0,0.0,18.5,0.0,0.0,13.306,13.306,26.43139672279358,64,384,1,1
0.5,64.0,384,8,0,64.0,0.0,18.6,0.0,0.0,13.32,13.32,26.923608541488647,64,384,1,1
0.5,64.0,384,8,0,64.0,0.0,18.6,0.0,0.0,13.27,13.27,27.431357622146606,64,384,1,1
0.5,64.0,384,8,0,64.0,0.0,18.6,0.0,0.0,13.388,13.388,27.93155002593994,64,384,1,1
0.5,64.0,384,8,0,64.0,0.0,18.6,0.0,0.0,13.92,13.92,28.431745767593384,64,384,1,1
0.5,64.0,384,8,0,64.0,0.0,18.6,0.0,0.0,14.218,14.218,28.931894063949585,64,384,1,1
0.5,64.0,384,8,0,64.0,0.0,18.4,0.0,0.0,14.24,14.24,29.423846006393433,64,384,1,1
0.5,64.0,384,8,0,64.0,0.0,18.3,0.0,0.0,14.196,14.196,29.93163228034973,64,384,1,1
0.5,64.0,384,8,5,64.0,0.0,18.3,0.0,0.0,14.34,14.34,30.42404866218567,64,384,1,1
0.5,64.0,384,8,0,64.0,0.0,18.4,0.0,0.0,14.314,14.314,30.922968864440918,64,384,1,1
0.5,64.0,384,8,0,64.0,0.0,18.2,0.0,0.0,14.316,14.316,31.432008743286133,64,384,1,1
0.5,64.0,384,8,0,64.0,0.0,18.4,0.0,0.0,14.32,14.32,31.93192172050476,64,384,1,1
0.5,64.0,384,8,0,64.0,0.0,18.4,0.0,0.0,13.722,13.722,32.431967973709106,64,384,1,1
0.5,64.0,384,8,0,64.0,0.0,18.5,0.0,0.0,13.386,13.386,32.93138885498047,64,384,1,1
0.5,64.0,384,8,0,64.0,0.0,18.4,0.0,0.0,13.456,13.456,33.431594371795654,64,384,1,1
0.5,64.0,384,8,0,64.0,0.0,18.3,0.0,0.0,13.288,13.288,33.9238600730896,64,384,1,1
0.5,64.0,384,8,0,64.0,0.0,18.3,0.0,0.0,13.266,13.266,34.431705713272095,64,384,1,1
0.5,64.0,384,8,0,64.0,0.0,18.3,0.0,0.0,13.256,13.256,34.92420220375061,64,384,1,1
0.5,64.0,384,8,0,64.0,0.0,18.4,0.0,0.0,13.26,13.26,35.43152117729187,64,384,1,1
0.5,64.0,384,8,0,64.0,0.0,18.3,0.0,0.0,13.306,13.306,35.92457413673401,64,384,1,1
0.5,64.0,384,8,6,64.0,0.0,18.4,0.0,0.0,13.266,13.266,36.423625469207764,64,384,1,1
0.5,64.0,384,8,0,64.0,0.0,18.3,0.0,0.0,13.276,13.276,36.92336559295654,64,384,1,1
0.5,64.0,384,8,0,64.0,0.0,18.3,0.0,0.0,13.262,13.262,37.422884941101074,64,384,1,1
0.5,64.0,384,8,0,64.0,0.0,18.2,0.0,0.0,13.27,13.27,37.931851625442505,64,384,1,1
0.5,64.0,384,8,0,64.0,0.0,18.4,0.0,0.0,13.386,13.386,38.4235680103302,64,384,1,1
0.5,64.0,384,8,0,64.0,0.0,18.2,0.0,0.0,13.266,13.266,38.92368745803833,64,384,1,1
0.5,64.0,384,8,0,64.0,0.0,18.4,0.0,0.0,13.262,13.262,39.423344373703,64,384,1,1
0.5,64.0,384,8,0,64.0,0.0,18.2,0.0,0.0,13.25,13.25,39.923084020614624,64,384,1,1
0.5,64.0,384,8,0,64.0,0.0,18.3,0.0,0.0,13.26,13.26,40.42344689369202,64,384,1,1
0.5,64.0,384,8,0,64.0,0.0,18.4,0.0,0.0,13.274,13.274,40.931525468826294,64,384,1,1
0.5,64.0,384,8,0,64.0,0.0,18.3,0.0,0.0,13.262,13.262,41.43212628364563,64,384,1,1
0.5,64.0,384,8,0,64.0,0.0,18.4,0.0,0.0,13.312,13.312,41.92324352264404,64,384,1,1
0.5,64.0,384,8,7,64.0,0.0,18.3,0.0,0.0,13.256,13.256,42.43269348144531,64,384,1,1
0.5,64.0,384,8,0,64.0,0.0,18.5,0.0,0.0,13.28,13.28,42.9235143661499,64,384,1,1
0.5,64.0,384,8,0,64.0,0.0,18.4,0.0,0.0,13.264,13.264,43.423603773117065,64,384,1,1
0.5,64.0,384,8,0,64.0,0.0,18.3,0.0,0.0,13.262,13.262,43.93212580680847,64,384,1,1
0.5,64.0,384,8,0,64.0,0.0,18.4,0.0,0.0,13.256,13.256,44.42333269119263,64,384,1,1
0.5,64.0,384,8,0,64.0,0.0,18.3,0.0,0.0,13.256,13.256,44.92346429824829,64,384,1,1
0.5,64.0,384,8,0,64.0,0.0,18.3,0.0,0.0,13.27,13.27,45.431594371795654,64,384,1,1
0.5,64.0,384,8,0,64.0,0.0,18.4,0.0,0.0,13.236,13.236,45.931965827941895,64,384,1,1
0.5,64.0,384,8,0,64.0,0.0,18.5,0.0,0.0,13.316,13.316,46.42327284812927,64,384,1,1
0.5,64.0,384,8,0,64.0,0.0,18.6,0.0,0.0,13.258,13.258,46.93209409713745,64,384,1,1
0.5,64.0,384,8,0,64.0,0.0,18.7,0.0,0.0,13.248,13.248,47.423264503479004,64,384,1,1
0.5,64.0,384,8,0,64.0,0.0,18.6,0.0,0.0,13.286,13.286,47.92349982261658,64,384,1,1
9.57,64.0,384,8,8,64.03,0.8357,99.5,984.731,0.358,1003.891,1988.979,57.50042247772217,64,384,1,1
0.5,64.0,384,8,0,64.0,0.0,18.4,0.0,0.0,13.256,13.256,58.00104355812073,64,384,1,1
0.5,64.0,384,8,0,64.0,0.0,18.4,0.0,0.0,13.258,13.258,58.49469041824341,64,384,1,1
0.5,64.0,384,8,0,64.0,0.0,18.2,0.0,0.0,13.26,13.26,59.000701904296875,64,384,1,1
0.5,64.0,384,8,0,64.0,0.0,18.4,0.0,0.0,13.262,13.262,59.500638484954834,64,384,1,1
0.5,64.0,384,8,2,64.0,0.0,18.3,0.0,0.0,13.272,13.272,60.00085473060608,64,384,1,1
0.5,64.0,384,8,0,64.0,0.0,18.3,0.0,0.0,13.264,13.264,60.50076079368591,64,384,1,1
0.5,64.0,384,8,0,64.0,0.0,18.4,0.0,0.0,13.242,13.242,60.99553871154785,64,384,1,1
0.5,64.0,384,8,0,64.0,0.0,18.4,0.0,0.0,13.256,13.256,61.50094985961914,64,384,1,1
0.5,64.0,384,8,0,64.0,0.0,18.3,0.0,0.0,13.268,13.268,62.00072622299194,64,384,1,1
0.5,64.0,384,8,0,64.0,0.0,18.4,0.0,0.0,13.268,13.268,62.49505281448364,64,384,1,1
0.5,64.0,384,8,0,64.0,0.0,18.3,0.0,0.0,13.266,13.266,63.000744342803955,64,384,1,1
0.5,64.0,384,8,0,64.0,0.0,18.4,0.0,0.0,13.262,13.262,63.50121736526489,64,384,1,1
0.5,64.0,384,8,0,64.0,0.0,18.4,0.0,0.0,13.264,13.264,64.00083684921265,64,384,1,1
0.5,64.0,384,8,0,64.0,0.0,18.4,0.0,0.0,13.25,13.25,64.50093531608582,64,384,1,1
0.5,64.0,384,8,0,64.0,0.0,18.4,0.0,0.0,13.24,13.24,65.00133919715881,64,384,1,1
0.5,64.0,384,8,0,64.0,0.0,18.4,0.0,0.0,13.27,13.27,65.50059199333191,64,384,1,1
0.5,64.0,384,8,3,64.0,0.0,18.3,0.0,0.0,13.266,13.266,65.99831652641296,64,384,1,1
0.5,64.0,384,8,0,64.0,0.0,18.4,0.0,0.0,13.262,13.262,66.5011396408081,64,384,1,1
0.5,64.0,384,8,0,64.0,0.0,18.6,0.0,0.0,13.25,13.25,66.99509358406067,64,384,1,1
0.5,64.0,384,8,0,62.0,0.0,18.5,0.0,0.0,12.84,12.84,67.49748229980469,64,384,1,1
0.5,64.0,384,8,0,66.0,0.0,18.7,0.0,0.0,13.666,13.666,67.99442791938782,64,384,1,1
0.5,64.0,384,8,0,64.0,0.0,18.6,0.0,0.0,13.558,13.558,68.50075697898865,64,384,1,1
0.5,64.0,384,8,0,64.0,0.0,18.7,0.0,0.0,14.056,14.056,69.00072908401489,64,384,1,1
0.5,64.0,384,8,0,64.0,0.0,18.5,0.0,0.0,14.236,14.236,69.50089645385742,64,384,1,1
0.5,64.0,384,8,0,64.0,0.0,18.3,0.0,0.0,14.33,14.33,70.00075483322144,64,384,1,1
0.5,64.0,384,8,0,64.0,0.0,18.3,0.0,0.0,14.31,14.31,70.50077271461487,64,384,1,1
0.5,64.0,384,8,0,64.0,0.0,18.4,0.0,0.0,14.328,14.328,70.99467134475708,64,384,1,1
0.5,64.0,384,8,0,64.0,0.0,18.3,0.0,0.0,14.312,14.312,71.49534273147583,64,384,1,1
0.5,64.0,384,8,4,64.0,0.0,18.3,0.0,0.0,14.316,14.316,71.99505615234375,64,384,1,1
0.5,64.0,384,8,0,64.0,0.0,18.3,0.0,0.0,14.164,14.164,72.50083899497986,64,384,1,1
0.5,64.0,384,8,0,62.0,0.0,18.4,0.0,0.0,13.126,13.126,73.00108575820923,64,384,1,1
0.5,64.0,384,8,0,66.0,0.0,18.5,0.0,0.0,13.824,13.824,73.50132608413696,64,384,1,1
0.5,64.0,384,8,0,64.0,0.0,18.5,0.0,0.0,13.276,13.276,73.99481797218323,64,384,1,1
0.5,64.0,384,8,0,64.0,0.0,18.2,0.0,0.0,13.236,13.236,74.49598264694214,64,384,1,1
0.5,64.0,384,8,0,64.0,0.0,18.3,0.0,0.0,13.256,13.256,75.00121021270752,64,384,1,1
0.5,64.0,384,8,0,62.0,0.0,18.3,0.0,0.0,12.852,12.852,75.50122284889221,64,384,1,1
0.5,64.0,384,8,0,66.0,0.0,18.4,0.0,0.0,13.74,13.74,75.99489259719849,64,384,1,1
0.5,64.0,384,8,0,64.0,0.0,18.4,0.0,0.0,13.26,13.26,76.5010118484497,64,384,1,1
0.5,64.0,384,8,0,62.0,0.0,18.4,0.0,0.0,12.852,12.852,77.00123071670532,64,384,1,1
0.5,64.0,384,8,0,64.0,0.0,18.4,0.0,0.0,13.27,13.27,77.49542331695557,64,384,1,1
0.5,64.0,384,8,0,64.0,0.0,18.3,0.0,0.0,13.25,13.25,78.0010495185852,64,384,1,1
0.5,64.0,384,8,5,64.0,0.0,18.4,0.0,0.0,13.37,13.37,78.50103545188904,64,384,1,1
0.5,64.0,384,8,0,66.0,0.0,18.4,0.0,0.0,13.682,13.682,78.9948058128357,64,384,1,1
0.5,64.0,384,8,0,62.0,0.0,18.3,0.0,0.0,12.83,12.83,79.50120568275452,64,384,1,1
0.5,64.0,384,8,0,64.0,0.0,18.4,0.0,0.0,13.258,13.258,80.00085139274597,64,384,1,1
0.5,64.0,384,8,0,64.0,0.0,18.4,0.0,0.0,13.268,13.268,80.50106978416443,64,384,1,1
0.5,64.0,384,8,0,64.0,0.0,18.4,0.0,0.0,13.318,13.318,80.9965431690216,64,384,1,1
0.5,64.0,384,8,0,64.0,0.0,18.4,0.0,0.0,13.31,13.31,81.4965488910675,64,384,1,1
0.5,64.0,384,8,0,64.0,0.0,18.5,0.0,0.0,13.306,13.306,82.00115299224854,64,384,1,1
0.5,64.0,384,8,0,64.0,0.0,18.4,0.0,0.0,13.322,13.322,82.49632024765015,64,384,1,1
0.5,64.0,384,8,0,64.0,0.0,18.4,0.0,0.0,13.306,13.306,82.995126247406,64,384,1,1
0.5,64.0,384,8,0,64.0,0.0,18.3,0.0,0.0,13.268,13.268,83.49532532691956,64,384,1,1
0.5,64.0,384,8,0,64.0,0.0,18.4,0.0,0.0,13.264,13.264,83.99522852897644,64,384,1,1
0.5,64.0,384,8,6,64.0,0.0,18.4,0.0,0.0,13.314,13.314,84.495281457901,64,384,1,1
0.5,64.0,384,8,0,64.0,0.0,18.3,0.0,0.0,13.328,13.328,85.00115489959717,64,384,1,1
0.5,64.0,384,8,0,64.0,0.0,18.4,0.0,0.0,13.312,13.312,85.49641561508179,64,384,1,1
0.5,64.0,384,8,0,64.0,0.0,18.4,0.0,0.0,13.406,13.406,86.00111818313599,64,384,1,1
0.5,64.0,384,8,0,64.0,0.0,18.3,0.0,0.0,13.266,13.266,86.50127053260803,64,384,1,1
0.5,64.0,384,8,0,64.0,0.0,18.6,0.0,0.0,13.334,13.334,86.99724173545837,64,384,1,1
0.5,64.0,384,8,0,64.0,0.0,18.7,0.0,0.0,13.262,13.262,87.49532389640808,64,384,1,1
0.5,64.0,384,8,0,64.0,0.0,18.6,0.0,0.0,13.314,13.314,88.00112271308899,64,384,1,1
0.5,64.0,384,8,0,64.0,0.0,18.7,0.0,0.0,13.378,13.378,88.50129985809326,64,384,1,1
0.5,64.0,384,8,0,64.0,0.0,18.7,0.0,0.0,14.138,14.138,88.99564123153687,64,384,1,1
0.5,64.0,384,8,0,64.0,0.0,18.6,0.0,0.0,14.19,14.19,89.49518728256226,64,384,1,1
0.5,64.0,384,8,0,64.0,0.0,18.4,0.0,0.0,14.278,14.278,89.99566745758057,64,384,1,1
0.5,64.0,384,8,7,64.0,0.0,18.4,0.0,0.0,14.402,14.402,90.50098204612732,64,384,1,1
0.5,64.0,384,8,0,64.0,0.0,18.3,0.0,0.0,14.402,14.402,91.00148272514343,64,384,1,1
0.5,64.0,384,8,0,64.0,0.0,18.4,0.0,0.0,14.306,14.306,91.49532890319824,64,384,1,1
0.5,64.0,384,8,0,64.0,0.0,18.3,0.0,0.0,14.354,14.354,91.99620866775513,64,384,1,1
0.5,64.0,384,8,0,64.0,0.0,18.4,0.0,0.0,14.282,14.282,92.50143361091614,64,384,1,1
0.5,64.0,384,8,0,64.0,0.0,18.4,0.0,0.0,13.752,13.752,93.00179743766785,64,384,1,1
0.5,64.0,384,8,0,64.0,0.0,18.4,0.0,0.0,13.442,13.442,93.49562120437622,64,384,1,1
0.5,64.0,384,8,0,64.0,0.0,18.3,0.0,0.0,13.446,13.446,93.99558115005493,64,384,1,1
0.5,64.0,384,8,0,64.0,0.0,18.3,0.0,0.0,13.288,13.288,94.50107312202454,64,384,1,1
0.5,64.0,384,8,0,64.0,0.0,18.3,0.0,0.0,13.314,13.314,94.99692797660828,64,384,1,1
0.5,64.0,384,8,0,64.0,0.0,18.3,0.0,0.0,13.328,13.328,95.49534487724304,64,384,1,1
0.5,64.0,384,8,0,64.0,0.0,18.4,0.0,0.0,13.314,13.314,96.00166749954224,64,384,1,1
9.51,64.0,384,8,8,64.02,0.841,100.0,990.988,0.366,1010.644,2001.997,105.51068449020386,64,384,1,1
0.5,64.0,384,8,0,64.0,0.0,18.3,0.0,0.0,13.31,13.31,106.01137590408325,64,384,1,1
0.5,64.0,384,8,0,64.0,0.0,18.4,0.0,0.0,13.39,13.39,106.51127672195435,64,384,1,1
0.5,64.0,384,8,0,64.0,0.0,18.3,0.0,0.0,13.246,13.246,107.01136779785156,64,384,1,1
0.5,64.0,384,8,0,64.0,0.0,18.5,0.0,0.0,13.258,13.258,107.51061344146729,64,384,1,1
0.5,64.0,384,8,2,64.0,0.0,18.6,0.0,0.0,13.298,13.298,108.01077389717102,64,384,1,1
0.5,64.0,384,8,0,64.0,0.0,18.6,0.0,0.0,13.318,13.318,108.51107430458069,64,384,1,1
0.5,64.0,384,8,0,64.0,0.0,18.6,0.0,0.0,13.722,13.722,109.01124095916748,64,384,1,1
0.5,64.0,384,8,0,64.0,0.0,18.6,0.0,0.0,14.348,14.348,109.51312398910522,64,384,1,1
0.5,64.0,384,8,0,64.0,0.0,18.5,0.0,0.0,14.418,14.418,110.01243615150452,64,384,1,1
0.5,64.0,384,8,0,64.0,0.0,18.2,0.0,0.0,14.172,14.172,110.51089549064636,64,384,1,1
0.5,64.0,384,8,0,64.0,0.0,18.3,0.0,0.0,14.37,14.37,111.0110375881195,64,384,1,1
0.5,64.0,384,8,0,64.0,0.0,18.4,0.0,0.0,14.37,14.37,111.51161003112793,64,384,1,1
0.5,64.0,384,8,0,64.0,0.0,18.3,0.0,0.0,14.396,14.396,112.01066851615906,64,384,1,1
0.5,64.0,384,8,0,64.0,0.0,18.2,0.0,0.0,14.366,14.366,112.51101160049438,64,384,1,1
0.5,64.0,384,8,0,64.0,0.0,18.3,0.0,0.0,14.156,14.156,113.01126170158386,64,384,1,1
0.5,64.0,384,8,0,64.0,0.0,18.5,0.0,0.0,13.514,13.514,113.51118206977844,64,384,1,1
0.5,64.0,384,8,3,64.0,0.0,18.3,0.0,0.0,13.452,13.452,114.01070427894592,64,384,1,1
0.5,64.0,384,8,0,64.0,0.0,18.3,0.0,0.0,13.314,13.314,114.512371301651,64,384,1,1
0.5,64.0,384,8,0,64.0,0.0,18.3,0.0,0.0,13.278,13.278,115.01162385940552,64,384,1,1
0.5,64.0,384,8,0,64.0,0.0,18.3,0.0,0.0,13.314,13.314,115.51160621643066,64,384,1,1
0.5,64.0,384,8,0,64.0,0.0,18.3,0.0,0.0,13.318,13.318,116.01188778877258,64,384,1,1
0.5,64.0,384,8,0,64.0,0.0,18.4,0.0,0.0,13.266,13.266,116.51189947128296,64,384,1,1
0.5,64.0,384,8,0,64.0,0.0,18.4,0.0,0.0,13.352,13.352,117.01160597801208,64,384,1,1
0.5,64.0,384,8,0,64.0,0.0,18.4,0.0,0.0,13.31,13.31,117.51108717918396,64,384,1,1
0.5,64.0,384,8,0,64.0,0.0,18.3,0.0,0.0,13.3,13.3,118.01109504699707,64,384,1,1
0.5,64.0,384,8,0,64.0,0.0,18.4,0.0,0.0,13.368,13.368,118.51089024543762,64,384,1,1
0.5,64.0,384,8,0,64.0,0.0,18.3,0.0,0.0,13.254,13.254,119.0110285282135,64,384,1,1
0.5,64.0,384,8,0,64.0,0.0,18.4,0.0,0.0,13.376,13.376,119.5113456249237,64,384,1,1
0.5,64.0,384,8,4,64.0,0.0,18.5,0.0,0.0,13.424,13.424,120.01134085655212,64,384,1,1
0.5,64.0,384,8,0,64.0,0.0,18.3,0.0,0.0,13.26,13.26,120.51166772842407,64,384,1,1
0.5,64.0,384,8,0,64.0,0.0,18.3,0.0,0.0,13.322,13.322,121.0118556022644,64,384,1,1
0.5,64.0,384,8,0,64.0,0.0,18.3,0.0,0.0,13.268,13.268,121.51122689247131,64,384,1,1
0.5,64.0,384,8,0,64.0,0.0,18.3,0.0,0.0,13.32,13.32,122.01107454299927,64,384,1,1
0.5,64.0,384,8,0,64.0,0.0,18.5,0.0,0.0,13.308,13.308,122.5110695362091,64,384,1,1
0.5,64.0,384,8,0,64.0,0.0,18.4,0.0,0.0,13.264,13.264,123.01349210739136,64,384,1,1
0.5,64.0,384,8,0,64.0,0.0,18.4,0.0,0.0,13.256,13.256,123.51194596290588,64,384,1,1
0.5,64.0,384,8,0,64.0,0.0,18.3,0.0,0.0,13.352,13.352,124.01332664489746,64,384,1,1
0.5,64.0,384,8,0,64.0,0.0,18.3,0.0,0.0,13.268,13.268,124.51188683509827,64,384,1,1
0.5,64.0,384,8,0,64.0,0.0,18.4,0.0,0.0,13.316,13.316,125.01128053665161,64,384,1,1
0.5,64.0,384,8,0,64.0,0.0,18.3,0.0,0.0,13.366,13.366,125.51149773597717,64,384,1,1
0.5,64.0,384,8,5,64.0,0.0,18.5,0.0,0.0,13.26,13.26,126.01132321357727,64,384,1,1
0.5,64.0,384,8,0,64.0,0.0,18.4,0.0,0.0,13.26,13.26,126.51122331619263,64,384,1,1
0.5,64.0,384,8,0,64.0,0.0,18.3,0.0,0.0,13.276,13.276,127.01188373565674,64,384,1,1
0.5,64.0,384,8,0,64.0,0.0,18.5,0.0,0.0,13.242,13.242,127.51142287254333,64,384,1,1
0.5,64.0,384,8,0,64.0,0.0,18.7,0.0,0.0,13.248,13.248,128.0110399723053,64,384,1,1
0.5,64.0,384,8,0,64.0,0.0,18.6,0.0,0.0,13.348,13.348,128.5115761756897,64,384,1,1
0.5,64.0,384,8,0,64.0,0.0,18.6,0.0,0.0,13.298,13.298,129.0116410255432,64,384,1,1
0.5,64.0,384,8,0,64.0,0.0,18.7,0.0,0.0,13.768,13.768,129.5120804309845,64,384,1,1
0.5,64.0,384,8,0,64.0,0.0,18.6,0.0,0.0,14.278,14.278,130.01157808303833,64,384,1,1
0.5,64.0,384,8,0,64.0,0.0,18.5,0.0,0.0,14.23,14.23,130.51168370246887,64,384,1,1
0.5,64.0,384,8,0,64.0,0.0,18.3,0.0,0.0,14.344,14.344,131.01127552986145,64,384,1,1
0.5,64.0,384,8,0,64.0,0.0,18.4,0.0,0.0,14.384,14.384,131.5122992992401,64,384,1,1
0.5,64.0,384,8,6,64.0,0.0,18.3,0.0,0.0,14.346,14.346,132.01168012619019,64,384,1,1
0.5,64.0,384,8,0,64.0,0.0,18.4,0.0,0.0,14.32,14.32,132.512225151062,64,384,1,1
0.5,64.0,384,8,0,64.0,0.0,18.3,0.0,0.0,14.358,14.358,133.00676798820496,64,384,1,1
0.5,64.0,384,8,0,64.0,0.0,18.4,0.0,0.0,14.024,14.024,133.5121133327484,64,384,1,1
0.5,64.0,384,8,0,64.0,0.0,18.3,0.0,0.0,13.454,13.454,134.01175904273987,64,384,1,1
0.5,64.0,384,8,0,64.0,0.0,18.4,0.0,0.0,13.448,13.448,134.51094675064087,64,384,1,1
0.5,64.0,384,8,0,64.0,0.0,18.3,0.0,0.0,13.388,13.388,135.01116061210632,64,384,1,1
0.5,64.0,384,8,0,64.0,0.0,18.3,0.0,0.0,13.326,13.326,135.5119879245758,64,384,1,1
0.5,64.0,384,8,0,64.0,0.0,18.3,0.0,0.0,13.338,13.338,136.01214575767517,64,384,1,1
0.5,64.0,384,8,0,64.0,0.0,18.4,0.0,0.0,13.33,13.33,136.51112747192383,64,384,1,1
0.5,64.0,384,8,0,64.0,0.0,18.4,0.0,0.0,13.328,13.328,137.01192331314087,64,384,1,1
0.5,64.0,384,8,0,64.0,0.0,18.3,0.0,0.0,13.26,13.26,137.5126543045044,64,384,1,1
0.5,64.0,384,8,7,64.0,0.0,18.4,0.0,0.0,13.302,13.302,138.0133819580078,64,384,1,1
0.5,64.0,384,8,0,64.0,0.0,18.3,0.0,0.0,13.332,13.332,138.51264834403992,64,384,1,1
0.5,64.0,384,8,0,64.0,0.0,18.4,0.0,0.0,13.248,13.248,139.01204800605774,64,384,1,1
0.5,64.0,384,8,0,64.0,0.0,18.3,0.0,0.0,13.316,13.316,139.51163291931152,64,384,1,1
0.5,64.0,384,8,0,64.0,0.0,18.3,0.0,0.0,13.37,13.37,140.01320672035217,64,384,1,1
0.5,64.0,384,8,0,64.0,0.0,18.3,0.0,0.0,13.306,13.306,140.51229286193848,64,384,1,1
0.5,64.0,384,8,0,64.0,0.0,18.3,0.0,0.0,13.318,13.318,141.01236772537231,64,384,1,1
0.5,64.0,384,8,0,64.0,0.0,18.4,0.0,0.0,13.314,13.314,141.51217555999756,64,384,1,1
0.5,64.0,384,8,0,64.0,0.0,18.4,0.0,0.0,13.328,13.328,142.01191687583923,64,384,1,1
0.5,64.0,384,8,0,64.0,0.0,18.3,0.0,0.0,13.258,13.258,142.5120086669922,64,384,1,1
0.5,64.0,384,8,0,64.0,0.0,18.3,0.0,0.0,13.342,13.342,143.0116400718689,64,384,1,1
0.5,64.0,384,8,0,64.0,0.0,18.3,0.0,0.0,13.384,13.384,143.51207280158997,64,384,1,1
9.99,64.0,384,8,8,63.97,0.8009,96.0,943.642,0.343,962.992,1906.977,153.49666929244995,64,384,1,1
0.5,64.0,384,8,0,64.0,0.0,18.4,0.0,0.0,13.922,13.922,153.99742984771729,64,384,1,1
0.5,64.0,384,8,0,64.0,0.0,18.4,0.0,0.0,13.446,13.446,154.49637460708618,64,384,1,1
0.5,64.0,384,8,0,64.0,0.0,18.3,0.0,0.0,13.418,13.418,154.99619436264038,64,384,1,1
0.5,64.0,384,8,0,64.0,0.0,18.3,0.0,0.0,13.328,13.328,155.49638080596924,64,384,1,1
0.5,64.0,384,8,0,64.0,0.0,18.3,0.0,0.0,13.256,13.256,155.9972641468048,64,384,1,1
0.5,64.0,384,8,2,64.0,0.0,18.3,0.0,0.0,13.264,13.264,156.49712777137756,64,384,1,1
0.5,64.0,384,8,0,64.0,0.0,18.3,0.0,0.0,13.32,13.32,156.99648547172546,64,384,1,1
0.5,64.0,384,8,0,64.0,0.0,18.4,0.0,0.0,13.31,13.31,157.49646854400635,64,384,1,1
0.5,64.0,384,8,0,64.0,0.0,18.3,0.0,0.0,13.264,13.264,157.99679160118103,64,384,1,1
0.5,64.0,384,8,0,64.0,0.0,18.3,0.0,0.0,13.3,13.3,158.49635696411133,64,384,1,1
0.5,64.0,384,8,0,64.0,0.0,18.3,0.0,0.0,13.288,13.288,158.99628567695618,64,384,1,1
0.5,64.0,384,8,0,64.0,0.0,18.3,0.0,0.0,13.266,13.266,159.4965558052063,64,384,1,1
0.5,64.0,384,8,0,64.0,0.0,18.3,0.0,0.0,13.266,13.266,159.99619054794312,64,384,1,1
0.5,64.0,384,8,0,64.0,0.0,18.3,0.0,0.0,13.256,13.256,160.49674105644226,64,384,1,1
0.5,64.0,384,8,0,64.0,0.0,18.3,0.0,0.0,13.376,13.376,160.99667859077454,64,384,1,1
0.5,64.0,384,8,0,64.0,0.0,18.4,0.0,0.0,13.308,13.308,161.49670243263245,64,384,1,1
0.5,64.0,384,8,0,64.0,0.0,18.3,0.0,0.0,13.316,13.316,161.9963448047638,64,384,1,1
0.5,64.0,384,8,3,64.0,0.0,18.3,0.0,0.0,13.354,13.354,162.49639868736267,64,384,1,1
0.5,64.0,384,8,0,64.0,0.0,18.2,0.0,0.0,13.262,13.262,162.99667716026306,64,384,1,1
0.5,64.0,384,8,0,64.0,0.0,18.3,0.0,0.0,13.262,13.262,163.49788069725037,64,384,1,1
0.5,64.0,384,8,0,64.0,0.0,18.3,0.0,0.0,13.32,13.32,163.99728155136108,64,384,1,1
0.5,64.0,384,8,0,64.0,0.0,18.3,0.0,0.0,13.254,13.254,164.49675059318542,64,384,1,1
0.5,64.0,384,8,0,64.0,0.0,18.3,0.0,0.0,13.288,13.288,164.99666905403137,64,384,1,1
0.5,64.0,384,8,0,64.0,0.0,18.4,0.0,0.0,13.286,13.286,165.49728775024414,64,384,1,1
0.5,64.0,384,8,0,64.0,0.0,18.4,0.0,0.0,13.314,13.314,165.99657249450684,64,384,1,1
0.5,64.0,384,8,0,64.0,0.0,18.3,0.0,0.0,13.294,13.294,166.49668622016907,64,384,1,1
0.5,64.0,384,8,0,64.0,0.0,18.3,0.0,0.0,13.392,13.392,166.99667048454285,64,384,1,1
0.5,64.0,384,8,0,64.0,0.0,18.3,0.0,0.0,13.248,13.248,167.49661421775818,64,384,1,1
0.5,64.0,384,8,0,64.0,0.0,18.3,0.0,0.0,13.266,13.266,167.99716019630432,64,384,1,1
0.5,64.0,384,8,4,64.0,0.0,18.7,0.0,0.0,13.328,13.328,168.49668860435486,64,384,1,1
0.5,64.0,384,8,0,64.0,0.0,18.6,0.0,0.0,13.322,13.322,168.9966471195221,64,384,1,1
0.5,64.0,384,8,0,64.0,0.0,18.5,0.0,0.0,13.276,13.276,169.49697279930115,64,384,1,1
0.5,64.0,384,8,0,64.0,0.0,18.6,0.0,0.0,13.668,13.668,169.99720287322998,64,384,1,1
0.5,64.0,384,8,0,64.0,0.0,18.6,0.0,0.0,14.132,14.132,170.49854350090027,64,384,1,1
0.5,64.0,384,8,0,64.0,0.0,18.5,0.0,0.0,14.206,14.206,170.99717259407043,64,384,1,1
0.5,64.0,384,8,0,64.0,0.0,18.3,0.0,0.0,14.26,14.26,171.49671483039856,64,384,1,1
0.5,64.0,384,8,0,64.0,0.0,18.3,0.0,0.0,14.32,14.32,171.997172832489,64,384,1,1
0.5,64.0,384,8,0,64.0,0.0,18.4,0.0,0.0,14.296,14.296,172.49623036384583,64,384,1,1
0.5,64.0,384,8,0,64.0,0.0,18.3,0.0,0.0,14.29,14.29,172.9969699382782,64,384,1,1
0.5,64.0,384,8,0,64.0,0.0,18.3,0.0,0.0,14.338,14.338,173.49685883522034,64,384,1,1
0.5,64.0,384,8,0,64.0,0.0,18.3,0.0,0.0,14.33,14.33,173.99710845947266,64,384,1,1
0.5,64.0,384,8,5,64.0,0.0,18.4,0.0,0.0,13.58,13.58,174.49697875976562,64,384,1,1
0.5,64.0,384,8,0,64.0,0.0,18.3,0.0,0.0,13.626,13.626,174.998681306839,64,384,1,1
0.5,64.0,384,8,0,64.0,0.0,18.3,0.0,0.0,13.334,13.334,175.4968786239624,64,384,1,1
0.5,64.0,384,8,0,64.0,0.0,18.3,0.0,0.0,13.318,13.318,175.99660682678223,64,384,1,1
0.5,64.0,384,8,0,64.0,0.0,18.3,0.0,0.0,13.31,13.31,176.49730587005615,64,384,1,1
0.5,64.0,384,8,0,64.0,0.0,18.3,0.0,0.0,13.322,13.322,176.99639654159546,64,384,1,1
0.5,64.0,384,8,0,64.0,0.0,18.4,0.0,0.0,13.314,13.314,177.49695992469788,64,384,1,1
0.5,64.0,384,8,0,64.0,0.0,18.4,0.0,0.0,13.262,13.262,177.99697136878967,64,384,1,1
0.5,64.0,384,8,0,62.0,0.0,18.3,0.0,0.0,13.168,13.168,178.50218796730042,64,384,1,1
0.5,64.0,384,8,0,66.0,0.0,18.3,0.0,0.0,13.722,13.722,178.9967041015625,64,384,1,1
0.5,64.0,384,8,0,62.0,0.0,18.1,0.0,0.0,13.638,13.638,179.51231026649475,64,384,1,1
0.5,64.0,384,8,0,66.0,0.0,18.3,0.0,0.0,13.964,13.964,180.0034568309784,64,384,1,1
0.5,64.0,384,8,6,64.0,0.0,18.2,0.0,0.0,13.384,13.384,180.49619340896606,64,384,1,1
0.5,64.0,384,8,0,64.0,0.0,18.2,0.0,0.0,13.956,13.956,180.99701046943665,64,384,1,1
0.5,64.0,384,8,0,64.0,0.0,18.3,0.0,0.0,13.246,13.246,181.4971022605896,64,384,1,1
0.5,64.0,384,8,0,64.0,0.0,18.3,0.0,0.0,13.27,13.27,181.99659371376038,64,384,1,1
0.5,64.0,384,8,0,64.0,0.0,18.0,0.0,0.0,13.54,13.54,182.52288460731506,64,384,1,1
0.5,64.0,384,8,0,58.0,0.0,18.0,0.0,0.0,12.714,12.714,182.99849486351013,64,384,1,1
0.5,64.0,384,8,0,70.0,0.0,18.5,0.0,0.0,14.592,14.592,183.49677848815918,64,384,1,1
0.5,64.0,384,8,0,64.0,0.0,18.2,0.0,0.0,13.736,13.736,183.99684596061707,64,384,1,1
0.5,64.0,384,8,0,62.0,0.0,18.1,0.0,0.0,13.268,13.268,184.49586009979248,64,384,1,1
0.5,64.0,384,8,0,66.0,0.0,18.4,0.0,0.0,13.73,13.73,185.02887201309204,64,384,1,1
0.5,64.0,384,8,0,64.0,0.0,18.3,0.0,0.0,13.44,13.44,185.49699187278748,64,384,1,1
0.5,64.0,384,8,0,64.0,0.0,18.2,0.0,0.0,13.346,13.346,186.04552507400513,64,384,1,1
0.5,64.0,384,8,7,64.0,0.0,18.3,0.0,0.0,13.26,13.26,186.49699544906616,64,384,1,1
0.5,64.0,384,8,0,64.0,0.0,18.4,0.0,0.0,13.29,13.29,186.99776005744934,64,384,1,1
0.5,64.0,384,8,0,64.0,0.0,18.3,0.0,0.0,13.252,13.252,187.49690771102905,64,384,1,1
0.5,64.0,384,8,0,64.0,0.0,18.2,0.0,0.0,13.31,13.31,187.99686479568481,64,384,1,1
0.5,64.0,384,8,0,64.0,0.0,18.3,0.0,0.0,13.262,13.262,188.49723410606384,64,384,1,1
0.5,64.0,384,8,0,64.0,0.0,18.5,0.0,0.0,13.262,13.262,189.00417566299438,64,384,1,1
0.5,64.0,384,8,0,62.0,0.0,18.4,0.0,0.0,12.9,12.9,189.51113080978394,64,384,1,1
0.5,64.0,384,8,0,66.0,0.0,18.5,0.0,0.0,13.596,13.596,189.9970109462738,64,384,1,1
0.5,64.0,384,8,0,64.0,0.0,18.5,0.0,0.0,13.512,13.512,190.51215362548828,64,384,1,1
0.5,64.0,384,8,0,62.0,0.0,18.4,0.0,0.0,13.914,13.914,191.01317071914673,64,384,1,1
0.5,64.0,384,8,0,66.0,0.0,18.5,0.0,0.0,14.588,14.588,191.49837851524353,64,384,1,1
0.5,64.0,384,8,0,64.0,0.0,18.2,0.0,0.0,14.334,14.334,191.99771118164062,64,384,1,1
9.51,64.0,384,8,8,64.07,0.8417,100.0,991.777,0.357,1010.884,2003.018,201.5033094882965,64,384,1,1
0.5,64.0,384,8,0,64.0,0.0,18.4,0.0,0.0,13.27,13.27,202.0036642551422,64,384,1,1
0.5,64.0,384,8,0,64.0,0.0,18.4,0.0,0.0,13.244,13.244,202.5031898021698,64,384,1,1
0.5,64.0,384,8,0,64.0,0.0,18.4,0.0,0.0,13.276,13.276,202.9976830482483,64,384,1,1
0.5,64.0,384,8,0,64.0,0.0,18.4,0.0,0.0,13.282,13.282,203.49758172035217,64,384,1,1
0.5,64.0,384,8,2,64.0,0.0,18.3,0.0,0.0,13.266,13.266,204.0033507347107,64,384,1,1
0.5,64.0,384,8,0,64.0,0.0,18.4,0.0,0.0,13.252,13.252,204.5033984184265,64,384,1,1
0.5,64.0,384,8,0,64.0,0.0,18.4,0.0,0.0,13.25,13.25,205.00370955467224,64,384,1,1
0.5,64.0,384,8,0,64.0,0.0,18.4,0.0,0.0,13.26,13.26,205.50350260734558,64,384,1,1
0.5,64.0,384,8,0,64.0,0.0,18.4,0.0,0.0,13.264,13.264,206.00347781181335,64,384,1,1
0.5,64.0,384,8,0,64.0,0.0,18.4,0.0,0.0,13.266,13.266,206.49775886535645,64,384,1,1
0.5,64.0,384,8,0,64.0,0.0,18.3,0.0,0.0,13.364,13.364,207.00313186645508,64,384,1,1
0.5,64.0,384,8,0,64.0,0.0,18.3,0.0,0.0,13.258,13.258,207.5034716129303,64,384,1,1
0.5,64.0,384,8,0,64.0,0.0,18.3,0.0,0.0,13.256,13.256,208.00341200828552,64,384,1,1
0.5,64.0,384,8,0,64.0,0.0,18.3,0.0,0.0,13.244,13.244,208.49720287322998,64,384,1,1
0.5,64.0,384,8,0,64.0,0.0,18.4,0.0,0.0,13.26,13.26,208.9971947669983,64,384,1,1
0.5,64.0,384,8,0,64.0,0.0,18.6,0.0,0.0,13.258,13.258,209.49756240844727,64,384,1,1
0.5,64.0,384,8,3,64.0,0.0,18.6,0.0,0.0,13.268,13.268,209.99720692634583,64,384,1,1
0.5,64.0,384,8,0,64.0,0.0,18.5,0.0,0.0,13.29,13.29,210.49738812446594,64,384,1,1
0.5,64.0,384,8,0,64.0,0.0,18.6,0.0,0.0,13.866,13.866,210.99754643440247,64,384,1,1
0.5,64.0,384,8,0,64.0,0.0,18.6,0.0,0.0,14.264,14.264,211.4973337650299,64,384,1,1
0.5,64.0,384,8,0,64.0,0.0,18.5,0.0,0.0,14.188,14.188,211.9975471496582,64,384,1,1
0.5,64.0,384,8,0,64.0,0.0,18.4,0.0,0.0,14.262,14.262,212.49712824821472,64,384,1,1
0.5,64.0,384,8,0,64.0,0.0,18.3,0.0,0.0,14.314,14.314,212.99755191802979,64,384,1,1
0.5,64.0,384,8,0,62.0,0.0,18.3,0.0,0.0,13.872,13.872,213.50358295440674,64,384,1,1
0.5,64.0,384,8,0,64.0,0.0,18.4,0.0,0.0,14.336,14.336,213.99801325798035,64,384,1,1
0.5,64.0,384,8,0,66.0,0.0,18.4,0.0,0.0,14.804,14.804,214.49759578704834,64,384,1,1
0.5,64.0,384,8,0,62.0,0.0,18.3,0.0,0.0,13.608,13.608,214.99975609779358,64,384,1,1
0.5,64.0,384,8,0,64.0,0.0,18.4,0.0,0.0,13.424,13.424,215.5035376548767,64,384,1,1
0.5,64.0,384,8,0,64.0,0.0,18.3,0.0,0.0,13.332,13.332,215.99952816963196,64,384,1,1
0.5,64.0,384,8,4,64.0,0.0,18.4,0.0,0.0,13.3,13.3,216.4981505870819,64,384,1,1
0.5,64.0,384,8,0,64.0,0.0,18.2,0.0,0.0,13.28,13.28,216.99788331985474,64,384,1,1
0.5,64.0,384,8,0,64.0,0.0,18.2,0.0,0.0,13.288,13.288,217.49797344207764,64,384,1,1
0.5,64.0,384,8,0,66.0,0.0,18.2,0.0,0.0,13.712,13.712,217.9972107410431,64,384,1,1
0.5,64.0,384,8,0,62.0,0.0,18.2,0.0,0.0,12.842,12.842,218.49814701080322,64,384,1,1
0.5,64.0,384,8,0,66.0,0.0,18.5,0.0,0.0,13.758,13.758,218.99724292755127,64,384,1,1
0.5,64.0,384,8,0,62.0,0.0,18.2,0.0,0.0,12.842,12.842,219.50326251983643,64,384,1,1
0.5,64.0,384,8,0,64.0,0.0,18.4,0.0,0.0,13.324,13.324,220.00388193130493,64,384,1,1
0.5,64.0,384,8,0,64.0,0.0,18.3,0.0,0.0,13.38,13.38,220.50349855422974,64,384,1,1
0.5,64.0,384,8,0,64.0,0.0,18.3,0.0,0.0,13.312,13.312,221.00590062141418,64,384,1,1
0.5,64.0,384,8,0,64.0,0.0,18.4,0.0,0.0,13.314,13.314,221.50351738929749,64,384,1,1
0.5,64.0,384,8,0,64.0,0.0,18.4,0.0,0.0,13.32,13.32,222.00384306907654,64,384,1,1
0.5,64.0,384,8,5,64.0,0.0,18.4,0.0,0.0,13.304,13.304,222.50362873077393,64,384,1,1
0.5,64.0,384,8,0,64.0,0.0,18.4,0.0,0.0,13.338,13.338,222.99970531463623,64,384,1,1
0.5,64.0,384,8,0,64.0,0.0,18.4,0.0,0.0,13.314,13.314,223.50382494926453,64,384,1,1
0.5,64.0,384,8,0,64.0,0.0,18.4,0.0,0.0,13.356,13.356,224.00386476516724,64,384,1,1
0.5,64.0,384,8,0,64.0,0.0,18.4,0.0,0.0,13.32,13.32,224.5176136493683,64,384,1,1
0.5,64.0,384,8,0,64.0,0.0,18.1,0.0,0.0,13.244,13.244,225.0039701461792,64,384,1,1
0.5,64.0,384,8,0,64.0,0.0,18.3,0.0,0.0,13.546,13.546,225.4976704120636,64,384,1,1
0.5,64.0,384,8,0,64.0,0.0,18.3,0.0,0.0,13.332,13.332,225.9993772506714,64,384,1,1
0.5,64.0,384,8,0,64.0,0.0,18.3,0.0,0.0,13.356,13.356,226.49757289886475,64,384,1,1
0.5,64.0,384,8,0,64.0,0.0,18.3,0.0,0.0,13.344,13.344,227.00393724441528,64,384,1,1
0.5,64.0,384,8,0,64.0,0.0,18.5,0.0,0.0,13.32,13.32,227.49742436408997,64,384,1,1
0.5,64.0,384,8,0,64.0,0.0,18.3,0.0,0.0,13.404,13.404,227.99781799316406,64,384,1,1
0.5,64.0,384,8,6,64.0,0.0,18.4,0.0,0.0,13.344,13.344,228.4977207183838,64,384,1,1
0.5,64.0,384,8,0,64.0,0.0,18.3,0.0,0.0,13.25,13.25,228.99813032150269,64,384,1,1
0.5,64.0,384,8,0,64.0,0.0,18.5,0.0,0.0,13.252,13.252,229.49732041358948,64,384,1,1
0.5,64.0,384,8,0,64.0,0.0,18.6,0.0,0.0,13.264,13.264,229.99789381027222,64,384,1,1
0.5,64.0,384,8,0,64.0,0.0,18.5,0.0,0.0,13.318,13.318,230.49783611297607,64,384,1,1
0.5,64.0,384,8,0,64.0,0.0,18.5,0.0,0.0,13.424,13.424,230.99774861335754,64,384,1,1
0.5,64.0,384,8,0,64.0,0.0,18.6,0.0,0.0,13.9,13.9,231.4978256225586,64,384,1,1
0.5,64.0,384,8,0,64.0,0.0,18.6,0.0,0.0,14.278,14.278,231.99774599075317,64,384,1,1
0.5,64.0,384,8,0,64.0,0.0,18.5,0.0,0.0,14.274,14.274,232.49786686897278,64,384,1,1
0.5,64.0,384,8,0,64.0,0.0,18.3,0.0,0.0,14.304,14.304,232.99747896194458,64,384,1,1
0.5,64.0,384,8,0,64.0,0.0,18.3,0.0,0.0,14.288,14.288,233.49765539169312,64,384,1,1
0.5,64.0,384,8,0,64.0,0.0,18.2,0.0,0.0,14.278,14.278,234.00424480438232,64,384,1,1
0.5,64.0,384,8,7,64.0,0.0,18.4,0.0,0.0,14.328,14.328,234.49834775924683,64,384,1,1
0.5,64.0,384,8,0,64.0,0.0,18.3,0.0,0.0,14.386,14.386,234.99810814857483,64,384,1,1
0.5,64.0,384,8,0,64.0,0.0,18.3,0.0,0.0,14.018,14.018,235.4982135295868,64,384,1,1
0.5,64.0,384,8,0,64.0,0.0,18.4,0.0,0.0,13.516,13.516,235.99796605110168,64,384,1,1
0.5,64.0,384,8,0,64.0,0.0,18.4,0.0,0.0,13.448,13.448,236.4977569580078,64,384,1,1
0.5,64.0,384,8,0,64.0,0.0,18.3,0.0,0.0,13.286,13.286,237.00408577919006,64,384,1,1
0.5,64.0,384,8,0,64.0,0.0,18.4,0.0,0.0,13.326,13.326,237.49820160865784,64,384,1,1
0.5,64.0,384,8,0,64.0,0.0,18.3,0.0,0.0,13.258,13.258,237.99777555465698,64,384,1,1
0.5,64.0,384,8,0,64.0,0.0,18.3,0.0,0.0,13.262,13.262,238.4976465702057,64,384,1,1
0.5,64.0,384,8,0,64.0,0.0,18.3,0.0,0.0,13.318,13.318,238.99827980995178,64,384,1,1
0.5,64.0,384,8,0,64.0,0.0,18.4,0.0,0.0,13.374,13.374,239.49810600280762,64,384,1,1
0.5,64.0,384,8,0,64.0,0.0,18.3,0.0,0.0,13.298,13.298,239.99831819534302,64,384,1,1
9.51,64.0,384,8,8,64.02,0.841,100.0,990.965,0.364,1010.634,2001.962,249.51354598999023,64,384,1,1
0.5,64.0,384,8,0,64.0,0.0,18.6,0.0,0.0,13.262,13.262,250.01446223258972,64,384,1,1
0.5,64.0,384,8,0,64.0,0.0,18.6,0.0,0.0,13.262,13.262,250.51371479034424,64,384,1,1
0.5,64.0,384,8,0,64.0,0.0,18.6,0.0,0.0,13.272,13.272,251.01419472694397,64,384,1,1
0.5,64.0,384,8,0,64.0,0.0,18.6,0.0,0.0,13.664,13.664,251.51341152191162,64,384,1,1
0.5,64.0,384,8,2,64.0,0.0,18.7,0.0,0.0,14.128,14.128,252.01427221298218,64,384,1,1
0.5,64.0,384,8,0,64.0,0.0,18.6,0.0,0.0,14.316,14.316,252.5136194229126,64,384,1,1
0.5,64.0,384,8,0,64.0,0.0,18.3,0.0,0.0,14.35,14.35,253.01428508758545,64,384,1,1
0.5,64.0,384,8,0,64.0,0.0,18.4,0.0,0.0,14.318,14.318,253.51393127441406,64,384,1,1
0.5,64.0,384,8,0,64.0,0.0,18.3,0.0,0.0,14.288,14.288,254.01405811309814,64,384,1,1
0.5,64.0,384,8,0,64.0,0.0,18.4,0.0,0.0,14.38,14.38,254.51462626457214,64,384,1,1
0.5,64.0,384,8,0,64.0,0.0,18.3,0.0,0.0,14.344,14.344,255.01428484916687,64,384,1,1
0.5,64.0,384,8,0,64.0,0.0,18.3,0.0,0.0,14.336,14.336,255.51403641700745,64,384,1,1
0.5,64.0,384,8,0,64.0,0.0,18.3,0.0,0.0,13.678,13.678,256.0136044025421,64,384,1,1
0.5,64.0,384,8,0,64.0,0.0,18.4,0.0,0.0,13.59,13.59,256.51340317726135,64,384,1,1
0.5,64.0,384,8,0,64.0,0.0,18.3,0.0,0.0,13.42,13.42,257.0143036842346,64,384,1,1
0.5,64.0,384,8,0,64.0,0.0,18.4,0.0,0.0,13.332,13.332,257.5141832828522,64,384,1,1
0.5,64.0,384,8,3,64.0,0.0,18.3,0.0,0.0,13.364,13.364,258.01375675201416,64,384,1,1
0.5,64.0,384,8,0,64.0,0.0,18.3,0.0,0.0,13.3,13.3,258.51426911354065,64,384,1,1
0.5,64.0,384,8,0,64.0,0.0,18.4,0.0,0.0,13.264,13.264,259.0140755176544,64,384,1,1
0.5,64.0,384,8,0,64.0,0.0,18.4,0.0,0.0,13.382,13.382,259.51385736465454,64,384,1,1
0.5,64.0,384,8,0,64.0,0.0,18.3,0.0,0.0,13.29,13.29,260.01449036598206,64,384,1,1
0.5,64.0,384,8,0,64.0,0.0,18.4,0.0,0.0,13.252,13.252,260.51431369781494,64,384,1,1
0.5,64.0,384,8,0,64.0,0.0,18.3,0.0,0.0,13.332,13.332,261.0137286186218,64,384,1,1
0.5,64.0,384,8,0,64.0,0.0,18.3,0.0,0.0,13.254,13.254,261.51405096054077,64,384,1,1
0.5,64.0,384,8,0,64.0,0.0,18.3,0.0,0.0,13.382,13.382,262.0137531757355,64,384,1,1
0.5,64.0,384,8,0,64.0,0.0,18.4,0.0,0.0,13.294,13.294,262.5142240524292,64,384,1,1
0.5,64.0,384,8,0,64.0,0.0,18.4,0.0,0.0,13.262,13.262,263.01412177085876,64,384,1,1
0.5,64.0,384,8,0,64.0,0.0,18.3,0.0,0.0,13.382,13.382,263.5146083831787,64,384,1,1
0.5,64.0,384,8,4,64.0,0.0,18.3,0.0,0.0,13.264,13.264,264.01390314102173,64,384,1,1
0.5,64.0,384,8,0,64.0,0.0,18.3,0.0,0.0,13.314,13.314,264.51417350769043,64,384,1,1
0.5,64.0,384,8,0,64.0,0.0,18.3,0.0,0.0,13.388,13.388,265.0140974521637,64,384,1,1
0.5,64.0,384,8,0,64.0,0.0,18.3,0.0,0.0,13.276,13.276,265.5136091709137,64,384,1,1
0.5,64.0,384,8,0,64.0,0.0,18.3,0.0,0.0,13.344,13.344,266.01405930519104,64,384,1,1
0.5,64.0,384,8,0,64.0,0.0,18.3,0.0,0.0,13.342,13.342,266.514399766922,64,384,1,1
0.5,64.0,384,8,0,64.0,0.0,18.4,0.0,0.0,13.268,13.268,267.0143015384674,64,384,1,1
0.5,64.0,384,8,0,64.0,0.0,18.3,0.0,0.0,13.298,13.298,267.5136044025421,64,384,1,1
0.5,64.0,384,8,0,64.0,0.0,18.4,0.0,0.0,13.306,13.306,268.0139718055725,64,384,1,1
0.5,64.0,384,8,0,64.0,0.0,18.3,0.0,0.0,13.258,13.258,268.51372814178467,64,384,1,1
0.5,64.0,384,8,0,64.0,0.0,18.3,0.0,0.0,13.266,13.266,269.013968706131,64,384,1,1
0.5,64.0,384,8,0,64.0,0.0,18.4,0.0,0.0,13.24,13.24,269.5140030384064,64,384,1,1
0.5,64.0,384,8,5,64.0,0.0,18.5,0.0,0.0,13.35,13.35,270.0140058994293,64,384,1,1
0.5,64.0,384,8,0,64.0,0.0,18.6,0.0,0.0,13.256,13.256,270.5136921405792,64,384,1,1
0.5,64.0,384,8,0,64.0,0.0,18.6,0.0,0.0,13.322,13.322,271.01419472694397,64,384,1,1
0.5,64.0,384,8,0,64.0,0.0,18.5,0.0,0.0,13.332,13.332,271.5148301124573,64,384,1,1
0.5,64.0,384,8,0,64.0,0.0,18.6,0.0,0.0,14.066,14.066,272.0144670009613,64,384,1,1
0.5,64.0,384,8,0,64.0,0.0,18.6,0.0,0.0,14.178,14.178,272.514191865921,64,384,1,1
0.5,64.0,384,8,0,64.0,0.0,18.3,0.0,0.0,14.012,14.012,273.01427149772644,64,384,1,1
0.5,64.0,384,8,0,64.0,0.0,18.4,0.0,0.0,14.216,14.216,273.5148274898529,64,384,1,1
0.5,64.0,384,8,0,64.0,0.0,18.3,0.0,0.0,14.322,14.322,274.01396131515503,64,384,1,1
0.5,64.0,384,8,0,64.0,0.0,18.4,0.0,0.0,14.322,14.322,274.5148935317993,64,384,1,1
0.5,64.0,384,8,0,64.0,0.0,18.4,0.0,0.0,14.348,14.348,275.0146017074585,64,384,1,1
0.5,64.0,384,8,0,64.0,0.0,18.3,0.0,0.0,14.324,14.324,275.51441979408264,64,384,1,1
0.5,64.0,384,8,6,64.0,0.0,18.2,0.0,0.0,13.876,13.876,276.01750326156616,64,384,1,1
0.5,64.0,384,8,0,64.0,0.0,18.4,0.0,0.0,13.398,13.398,276.51688027381897,64,384,1,1
0.5,64.0,384,8,0,64.0,0.0,18.3,0.0,0.0,13.458,13.458,277.0159821510315,64,384,1,1
0.5,64.0,384,8,0,64.0,0.0,18.3,0.0,0.0,13.346,13.346,277.52864837646484,64,384,1,1
0.5,64.0,384,8,0,64.0,0.0,18.3,0.0,0.0,13.398,13.398,278.02529406547546,64,384,1,1
0.5,64.0,384,8,0,64.0,0.0,18.4,0.0,0.0,13.244,13.244,278.51721239089966,64,384,1,1
0.5,64.0,384,8,0,64.0,0.0,18.4,0.0,0.0,13.248,13.248,279.0145900249481,64,384,1,1
0.5,64.0,384,8,0,64.0,0.0,18.4,0.0,0.0,13.304,13.304,279.5180330276489,64,384,1,1
0.5,64.0,384,8,0,64.0,0.0,18.3,0.0,0.0,13.312,13.312,280.01455950737,64,384,1,1
0.5,64.0,384,8,0,64.0,0.0,18.3,0.0,0.0,13.354,13.354,280.5166702270508,64,384,1,1
0.5,64.0,384,8,0,64.0,0.0,18.4,0.0,0.0,13.248,13.248,281.0143303871155,64,384,1,1
0.5,64.0,384,8,0,64.0,0.0,18.3,0.0,0.0,13.316,13.316,281.5159993171692,64,384,1,1
0.5,64.0,384,8,7,64.0,0.0,18.3,0.0,0.0,13.252,13.252,282.01403164863586,64,384,1,1
0.5,64.0,384,8,0,64.0,0.0,18.4,0.0,0.0,13.3,13.3,282.51463413238525,64,384,1,1
0.5,64.0,384,8,0,64.0,0.0,18.4,0.0,0.0,13.266,13.266,283.0150065422058,64,384,1,1
0.5,64.0,384,8,0,64.0,0.0,18.3,0.0,0.0,13.3,13.3,283.51493668556213,64,384,1,1
0.5,64.0,384,8,0,64.0,0.0,18.4,0.0,0.0,13.376,13.376,284.0145342350006,64,384,1,1
0.5,64.0,384,8,0,64.0,0.0,18.3,0.0,0.0,13.24,13.24,284.5155804157257,64,384,1,1
0.5,64.0,384,8,0,64.0,0.0,18.3,0.0,0.0,13.314,13.314,285.0143971443176,64,384,1,1
0.5,64.0,384,8,0,64.0,0.0,18.2,0.0,0.0,13.266,13.266,285.51589369773865,64,384,1,1
0.5,64.0,384,8,0,64.0,0.0,18.3,0.0,0.0,13.244,13.244,286.0148808956146,64,384,1,1
0.5,64.0,384,8,0,64.0,0.0,18.3,0.0,0.0,13.262,13.262,286.51583528518677,64,384,1,1
0.5,64.0,384,8,0,64.0,0.0,18.3,0.0,0.0,13.296,13.296,287.0146028995514,64,384,1,1
0.5,64.0,384,8,0,64.0,0.0,18.4,0.0,0.0,13.276,13.276,287.5155382156372,64,384,1,1
9.99,64.0,384,8,8,63.97,0.8009,96.0,943.656,0.336,962.69,1906.681,297.50033617019653,64,384,1,1
0.5,64.0,384,8,0,64.0,0.0,18.3,0.0,0.0,13.332,13.332,297.99899768829346,64,384,1,1
0.5,64.0,384,8,0,64.0,0.0,18.4,0.0,0.0,13.244,13.244,298.50115847587585,64,384,1,1
0.5,64.0,384,8,0,64.0,0.0,18.3,0.0,0.0,13.324,13.324,298.99916768074036,64,384,1,1
0.5,64.0,384,8,0,64.0,0.0,18.3,0.0,0.0,13.316,13.316,299.4993305206299,64,384,1,1
0.5,64.0,384,8,0,64.0,0.0,18.3,0.0,0.0,13.26,13.26,299.99920201301575,64,384,1,1
0.5,64.0,384,8,2,64.0,0.0,18.3,0.0,0.0,13.344,13.344,300.49864888191223,64,384,1,1
0.5,64.0,384,8,0,64.0,0.0,18.4,0.0,0.0,13.246,13.246,300.99872875213623,64,384,1,1
0.5,64.0,384,8,0,64.0,0.0,18.3,0.0,0.0,13.268,13.268,301.49849820137024,64,384,1,1
0.5,64.0,384,8,0,64.0,0.0,18.4,0.0,0.0,13.258,13.258,301.9993371963501,64,384,1,1
0.5,64.0,384,8,0,64.0,0.0,18.4,0.0,0.0,13.308,13.308,302.49920296669006,64,384,1,1
0.5,64.0,384,8,0,64.0,0.0,18.4,0.0,0.0,13.266,13.266,302.99924874305725,64,384,1,1
0.5,64.0,384,8,0,64.0,0.0,18.4,0.0,0.0,13.256,13.256,303.49906182289124,64,384,1,1
0.5,64.0,384,8,0,64.0,0.0,18.4,0.0,0.0,13.308,13.308,303.99891996383667,64,384,1,1
0.5,64.0,384,8,0,64.0,0.0,18.3,0.0,0.0,13.38,13.38,304.50114130973816,64,384,1,1
0.5,64.0,384,8,0,64.0,0.0,18.3,0.0,0.0,13.372,13.372,304.99959087371826,64,384,1,1
0.5,64.0,384,8,0,64.0,0.0,18.5,0.0,0.0,13.312,13.312,305.4993772506714,64,384,1,1
0.5,64.0,384,8,0,64.0,0.0,18.3,0.0,0.0,13.312,13.312,305.9997384548187,64,384,1,1
0.5,64.0,384,8,3,64.0,0.0,18.4,0.0,0.0,13.346,13.346,306.49928307533264,64,384,1,1
0.5,64.0,384,8,0,64.0,0.0,18.4,0.0,0.0,13.26,13.26,306.99918150901794,64,384,1,1
0.5,64.0,384,8,0,64.0,0.0,18.4,0.0,0.0,13.256,13.256,307.49911737442017,64,384,1,1
0.5,64.0,384,8,0,64.0,0.0,18.4,0.0,0.0,13.308,13.308,307.99876713752747,64,384,1,1
0.5,64.0,384,8,0,64.0,0.0,18.3,0.0,0.0,13.264,13.264,308.4991328716278,64,384,1,1
0.5,64.0,384,8,0,64.0,0.0,18.4,0.0,0.0,13.252,13.252,308.9995481967926,64,384,1,1
0.5,64.0,384,8,0,64.0,0.0,18.3,0.0,0.0,13.394,13.394,309.4987256526947,64,384,1,1
0.5,64.0,384,8,0,64.0,0.0,18.4,0.0,0.0,13.312,13.312,309.999502658844,64,384,1,1
0.5,64.0,384,8,0,64.0,0.0,18.6,0.0,0.0,13.326,13.326,310.50260162353516,64,384,1,1
0.5,64.0,384,8,0,64.0,0.0,18.7,0.0,0.0,13.372,13.372,311.000027179718,64,384,1,1
0.5,64.0,384,8,0,64.0,0.0,18.8,0.0,0.0,13.25,13.25,311.4993107318878,64,384,1,1
0.5,64.0,384,8,0,64.0,0.0,18.7,0.0,0.0,13.342,13.342,311.9993462562561,64,384,1,1
0.5,64.0,384,8,4,64.0,0.0,18.7,0.0,0.0,14.106,14.106,312.4990289211273,64,384,1,1
0.5,64.0,384,8,0,2.0,0.0,16.6,0.0,0.0,0.47,0.47,313.0037705898285,64,384,1,1
0.5,64.0,384,8,0,0.0,0.0,16.3,0.0,0.0,0.0,0.0,313.5015470981598,64,384,1,1
